2,7,3,0.228027,-0.762695,-0.572754,-3.1875,0.5,-4.0625,0,8,7,0,0.708496,0.729492,-3.6875,-24.0625,-13.9375,0,0
2,7,3,0.231445,-0.803711,-0.585938,3.0625,-7.0625,-12.5,0,8,7,0,0.70752,0.759277,2.25,-17.5,-13.75,0,0
2,7,3,0.233887,-0.789063,-0.532715,11.5,-10.1875,-10.1875,0,8,7,0,0.658691,0.780762,14.0625,-7.5,-2.4375,0,0
2,7,4,0.210449,-0.768066,-0.53418,10.375,-9.1875,-9.125,0,8,7,0,0.765625,0.782227,9.3125,-9.625,-1.5,0,0
2,7,4,0.266602,-0.791504,-0.509766,9.875,-9.1875,-9.9375,0,8,7,0,0.702637,0.767578,-7.6875,-12.75,-7.375,0,0
2,7,4,0.250488,-0.822754,-0.527344,13.3125,-4.8125,-3.875,0,8,7,0,0.725586,0.763184,-5.9375,-6.5,-5.125,0,0
2,7,4,0.23291,-0.787598,-0.532227,4.0625,-1.125,1.75,0,8,7,0,0.705078,0.752441,-1.875,-1.25,-1.8125,0,0
2,7,4,0.250977,-0.793945,-0.534668,5.0625,-0.3125,1.9375,0,8,7,0,0.747559,0.749512,2.875,3.125,3.8125,0,0
2,7,4,0.280273,-0.806152,-0.494629,8,1.0625,2.6875,0,8,7,0,0.705078,0.705566,6.8125,7.875,9.375,0,0
2,7,4,0.242676,-0.737305,-0.494629,-3.125,4.25,6.6875,0,8,7,0,0.697266,0.713379,8.4375,8,13.625,0,0
2,7,4,0.223145,-0.807617,-0.497559,-1.125,9.625,13.25,0,8,7,0,0.712891,0.76416,12.8125,5.1875,17.375,0,0
2,7,3,0.261719,-0.896973,-0.560547,-9.6875,20.375,13.0625,0,8,7,0,0.839844,0.755859,13.625,-8.6875,10.8125,0,0
2,7,3,0.206055,-0.778809,-0.469727,-18.125,19.3125,21,0,8,7,0,0.720215,0.691895,1.125,-0.3125,3.9375,0,0
2,7,3,0.222656,-0.743164,-0.532227,-17.875,16.4375,9.5,0,8,7,0,0.743164,0.748047,7.9375,2.125,2.5625,0,0
2,7,3,0.222168,-0.827637,-0.568848,-24.1875,22.125,14.1875,0,8,7,0,0.76123,0.758301,-4.625,-1.125,-2.1875,0,0
2,7,3,0.151367,-0.792969,-0.523926,-21.6875,16.875,10.875,0,8,7,0,0.740234,0.741211,-16.25,-7,-8,0,0
2,7,3,0.214844,-0.858887,-0.603027,-21.3125,12.375,7.5625,0,8,7,0,0.741699,0.709473,-11.5,-14,-12.3125,0,0
2,7,3,0.195801,-0.738281,-0.584961,0.625,2.0625,9.75,0,8,7,0,0.718262,0.73877,-10.9375,-15.4375,-13.8125,0,0
2,7,3,0.177734,-0.776367,-0.587402,11.5,-3.3125,7.8125,0,8,7,0,0.722168,0.732422,-6.375,-16.0625,-11.5625,0,0
2,7,3,0.191895,-0.805176,-0.535156,-3.25,-1.5625,2.9375,0,8,7,0,0.708496,0.748535,-1.375,-15.6875,-6.75,0,0
2,7,3,0.162109,-0.823242,-0.581543,2.5625,-4.625,2.5625,0,8,7,0,0.755371,0.73877,-4.4375,-15.6875,-8.25,0,0
2,7,3,0.142578,-0.811035,-0.563477,11.875,-11.1875,-3.4375,0,8,7,0,0.720215,0.72998,-9.5,-14.5625,-11.0625,0,0
2,7,3,0.132813,-0.828613,-0.544922,15.3125,-15.5625,-3.4375,0,8,7,0,0.692871,0.745117,-1.6875,-16.375,-11,0,0
2,7,3,0.188965,-0.820801,-0.574219,17.6875,-17.9375,-6.1875,0,8,7,0,0.783203,0.789063,0.125,-13.625,-5.8125,0,0
2,7,3,0.181152,-0.773926,-0.474609,5.4375,-9.875,-3.875,0,8,7,0,0.690918,0.731934,-11.4375,-3.875,-6.5625,0,0
2,7,3,0.137207,-0.820313,-0.534668,-1.125,-4.5,-7.5625,0,8,7,0,0.706055,0.728027,-1.4375,0.25,-7.75,0,0
2,7,3,0.189453,-0.770996,-0.567383,9.625,-11.125,-10.375,0,8,7,0,0.69043,0.76709,-3.3125,-1.6875,-7.3125,0,0
2,7,3,0.20459,-0.807617,-0.532715,8,-18.25,-18.4375,0,8,7,0,0.699707,0.759277,-4.4375,0.1875,-4.125,0,0
2,7,3,0.19043,-0.816406,-0.524902,13,-24.1875,-25.125,0,8,7,0,0.672363,0.765625,1.625,3,-0.25,0,0
2,7,4,0.230957,-0.779297,-0.496094,18,-23.3125,-28.0625,0,8,7,0,0.742188,0.73877,9.6875,5.75,5.1875,0,0
2,7,4,0.271484,-0.788574,-0.468262,5.125,-21.625,-34.125,0,8,7,0,0.724121,0.744629,10.3125,9.25,6.75,0,0
2,7,4,0.262695,-0.780273,-0.486816,-2.4375,-9.4375,-17.625,0,8,7,0,0.723633,0.76123,12.125,7.8125,7,0,0
2,7,4,0.269043,-0.771484,-0.539063,-2.25,-1.25,-12.3125,0,8,7,0,0.730957,0.808594,0.1875,7.6875,6.3125,0,0
2,7,4,0.244141,-0.808594,-0.481934,-2.3125,1.25,-12.25,0,8,7,0,0.710938,0.711914,1.75,7.5625,4.875,0,0
2,7,4,0.275879,-0.865723,-0.486816,-8.75,5.375,-9.5,0,8,7,0,0.740234,0.746582,7,16.6875,7.3125,0,0
2,7,4,0.281738,-0.790527,-0.48877,-4.1875,24.875,17.375,0,8,7,0,0.730957,0.775879,-3,21.75,10.9375,0,0
2,7,4,0.27832,-0.791992,-0.492676,-19.1875,30.8125,18.3125,0,8,7,0,0.708008,0.780273,-17.875,33.6875,16.375,0,0
2,7,3,0.28125,-0.828613,-0.538086,-20.6875,29.375,11.9375,0,8,7,0,0.703125,0.763184,-11.3125,33.625,16.5,0,0
2,7,3,0.243652,-0.775391,-0.533203,-8.9375,21.0625,4.5,0,8,7,0,0.754395,0.743652,-3,27.875,11.0625,0,0
2,7,3,0.247559,-0.736816,-0.560547,-5.875,10.125,-0.3125,0,9,7,0,0.785645,0.733887,-0.5625,19.1875,2.25,0,0
2,7,3,0.217285,-0.73877,-0.561523,-10.125,4.5625,5.125,0,9,7,0,0.746094,0.726563,-6.3125,15.6875,-4.5,0,0
2,7,3,0.220703,-0.768555,-0.526855,-13.75,7.875,8.8125,0,9,7,0,0.712891,0.743652,-5,11.6875,-6.6875,0,0
2,7,3,0.243652,-0.84668,-0.544434,-11.25,7.25,7.8125,0,9,7,0,0.700195,0.785156,-0.8125,0.75,-3.6875,0,0
2,7,3,0.247559,-0.845703,-0.558594,9.25,-1.6875,12.0625,0,9,7,0,0.699219,0.800293,-11.875,-7.4375,-5.3125,0,0
2,7,3,0.224121,-0.78418,-0.566895,30.875,-13.4375,12.625,0,9,7,0,0.694336,0.750977,-15.625,-8.8125,-7.5625,0,0
2,7,3,0.244141,-0.762695,-0.516113,39.625,-20.5,7.25,0,9,7,0,0.67627,0.746582,-8.375,-3.3125,-3.625,0,0
2,7,3,0.291992,-0.754883,-0.449219,-3.5625,-1.875,9.6875,0,9,7,0,0.66748,0.782715,-4.0625,7.8125,6.125,0,0
2,7,3,0.250488,-0.745117,-0.492188,-35.6875,17.8125,2.875,0,9,7,0,0.698242,0.788086,11.5,12.8125,15.6875,0,0
2,7,3,0.233887,-0.777832,-0.540039,-40.75,15.9375,-6.25,0,9,7,0,0.69043,0.784668,10.6875,14.9375,19.375,0,0
2,7,3,0.210449,-0.819336,-0.600586,-33.5,9.75,-10.625,0,9,7,0,0.712891,0.779297,2.1875,13,18.4375,0,0
2,7,3,0.206543,-0.856934,-0.641602,-12.1875,-2.875,-12.9375,0,9,8,0,0.783691,0.745117,5.5625,4.25,15.75,0,0
2,7,3,0.186035,-0.805176,-0.572266,-2.25,-8.375,-11.1875,0,9,8,0,0.754883,0.73584,4.6875,-0.75,11.5,0,0
2,7,3,0.224121,-0.799805,-0.594238,20.1875,-19,-8.5,0,9,8,0,0.73584,0.765137,-0.875,-3.3125,7.875,0,0
2,7,3,0.230469,-0.775391,-0.571289,40.5,-26.4375,-8.5,0,8,8,0,0.666992,0.769531,1.625,-4.9375,5.75,0,0
2,7,4,0.263672,-0.745605,-0.537109,37.1875,-27.3125,-13.75,0,8,8,0,0.657715,0.748535,3.9375,-4.8125,7.5625,0,0
2,7,4,0.315918,-0.737305,-0.51416,20.1875,-19.1875,-12.8125,0,8,8,0,0.689453,0.761719,6.4375,-2.3125,13,0,0
2,7,4,0.300781,-0.767578,-0.504883,-2.375,12.9375,0.5625,0,8,8,0,0.682129,0.748047,1.6875,8.625,27.75,0,0
2,7,4,0.264648,-0.811523,-0.462891,-5.9375,20.625,2.375,0,8,8,0,0.671875,0.78125,-0.1875,13.125,32.5,0,0
2,7,3,0.251953,-0.875488,-0.395996,-18.625,33.8125,13.3125,0,8,8,0,0.632813,0.876953,-18.1875,23.25,39.625,0,0
2,7,3,0.245117,-1.00977,-0.388672,30.4375,62.1875,20.625,0,8,8,0,0.634766,0.872559,-62.1875,19.5,60.75,0,0
3,7,3,0.273438,-1.01123,-0.43457,15.875,59.5,38.75,0,8,8,0,0.572266,0.865723,-39.8125,7.375,63.375,0,0
3,7,3,0.27832,-0.943359,-0.458008,22.0625,50.5,50.25,0,8,8,0,0.706055,0.824707,-47.4375,7.5,52.5625,0,0
3,7,3,0.244629,-0.895508,-0.402344,26.875,48.875,60.75,0,8,8,0,0.61377,0.854492,-54.5,11.375,36.75,0,0
3,7,2,0.192383,-0.882324,-0.450195,34.875,38.625,55.25,0,8,8,0,0.681641,0.86084,-30,15.0625,12.125,0,0
3,8,2,0.180664,-0.791504,-0.345703,33.6875,25.0625,42,0,8,9,0,0.499023,0.894531,-60.125,11.3125,10.6875,0,0
3,8,2,0.140137,-0.924805,-0.347656,15.0625,18.6875,35.25,0,8,9,0,0.44873,0.912109,-63.875,5.6875,8.5625,0,0
3,8,2,0.161133,-0.982422,-0.223633,84.9375,-7.4375,20.75,0,8,9,0,0.373047,1.02783,-108.625,2.125,13.625,0,0
4,8,2,0.0419922,-0.92041,-0.164063,28.625,0,34.6875,0,8,9,0,0.206055,1.10547,-76.5625,9.25,12.125,0,0
4,8,2,0.074707,-0.944824,-0.141602,13.625,-3.125,28.875,0,8,9,0,0.269531,1.05859,-17.6875,18.9375,4.625,0,0
4,8,2,0.0522461,-0.90918,-0.137695,19,14.5625,28.5,0,8,9,0,0.249023,0.983398,-10.25,22.6875,4.9375,0,0
4,8,2,0.0380859,-0.896484,-0.154785,-7.5,16.0625,10.5625,0,8,9,0,0.217285,0.979004,-8.8125,13.875,1.875,0,0
4,8,2,0.0263672,-0.908203,-0.151855,-6.1875,14.75,2.6875,0,8,9,0,0.185547,0.985352,-2.3125,6.5,1.6875,0,0
4,8,2,0.03125,-0.943848,-0.17041,-19.4375,14.5625,-7.375,0,8,9,0,0.193848,1.03369,15.6875,-3.4375,3.8125,0,0
3,8,2,0.0322266,-0.941895,-0.191406,-37.75,11.1875,-8.75,0,8,9,0,0.17627,1.0957,99.1875,-1.25,-7.375,0,0
3,8,2,0.0410156,-1.01563,-0.241699,-68.75,4.625,1.5625,0,8,9,0,0.297363,1.01904,146.5,5.5,-15.125,0,0
3,8,2,-0.000976563,-0.935059,-0.253418,-57.875,18.8125,5.3125,0,8,9,0,0.475586,0.847168,146.875,9.1875,-12.6875,0,0
3,8,2,0.0244141,-0.900879,-0.292969,-61.25,16.375,-5.25,0,8,9,0,0.674316,0.783203,83.125,1.625,13.875,0,0
3,8,2,0.027832,-0.965332,-0.379883,-37.3125,13.875,-11.9375,0,8,9,0,0.636719,0.846191,16.375,-5.4375,7.4375,0,0
3,8,2,0.0473633,-0.931641,-0.380859,-21.6875,10,-13,0,8,9,0,0.582031,0.856934,27.4375,-11.5,3.6875,0,0
3,8,2,0.0537109,-0.905762,-0.423828,-21.1875,10.375,-13.875,0,8,9,0,0.680176,0.813965,18.5625,-14.8125,3.625,0,0
3,8,2,0.0424805,-0.914063,-0.426758,-26.0625,14.375,-16,0,8,9,0,0.634766,0.825195,15.9375,-16.5625,6.625,0,0
3,8,2,0.0664063,-0.949707,-0.430664,-29.125,16.75,-20.125,0,8,9,0,0.691406,0.802246,29.1875,-17.25,8.75,0,0
3,8,2,0.0854492,-0.90625,-0.435547,-22.5,15.4375,-22.25,0,8,9,0,0.679199,0.769531,6.6875,-13.625,11.0625,0,0
3,8,2,0.137207,-0.903809,-0.436523,-10.125,8.0625,-22.875,0,8,9,0,0.683594,0.753906,13.8125,-11.1875,7.375,0,0
3,8,2,0.168457,-0.885254,-0.442871,11.125,7.375,-20.25,0,8,9,0,0.72168,0.729492,-7.25,-5.25,8.3125,0,0
3,7,2,0.189453,-0.876465,-0.454102,38.9375,8.375,-18.25,0,8,9,0,0.689453,0.76123,11.8125,-3.625,6.6875,0,0
3,7,2,0.187988,-0.890625,-0.416992,73,15.375,-19.875,0,7,9,0,0.699219,0.772949,3.3125,-0.125,11.9375,0,0
3,7,2,0.186035,-0.873047,-0.36084,23.1875,4.5625,-13.0625,0,7,9,0,0.72168,0.782227,4.125,-0.4375,13.125,0,0
3,7,2,0.184082,-0.942871,-0.333008,15.5,3,-7.375,0,7,9,0,0.764648,0.781738,-29.8125,3.0625,14.4375,0,0
3,7,2,0.161621,-0.927734,-0.315918,26.1875,-0.8125,-0.0625,0,7,9,0,0.672363,0.811523,-50.4375,6.3125,17.9375,0,0
3,7,2,0.181641,-0.951172,-0.28418,-2.75,-11.875,6.875,0,7,9,0,0.626465,0.850098,-48.3125,10.125,14.1875,0,0
3,7,2,0.225586,-0.9375,-0.297852,5.125,-16.125,6.625,0,7,9,0,0.663086,0.822266,-19.6875,8.375,-4.6875,0,0
3,7,2,0.236816,-0.924805,-0.294922,5.1875,-15.3125,9.0625,0,8,9,0,0.622559,0.827148,-40.1875,9.6875,-11.875,0,0
3,7,2,0.226074,-0.92334,-0.296387,7.8125,-13.4375,10.5,0,8,9,0,0.507813,0.862793,-35.625,8.6875,-10.1875,0,0
3,7,2,0.220703,-0.920898,-0.271973,6.375,-8.125,8.5,0,8,9,0,0.521973,0.873047,-8.8125,8.125,-8.375,0,0
3,7,2,0.208008,-0.92041,-0.273438,3.625,-5.5,5.5,0,8,9,0,0.526367,0.873047,-18.0625,8.1875,-2.4375,0,0
3,8,2,0.181641,-0.929688,-0.27832,2.625,-0.5,3.6875,0,8,9,0,0.510742,0.906738,-3,2.125,-5.5,0,0
3,8,2,0.164551,-0.9375,-0.270996,1.625,1.75,2.625,0,8,9,0,0.525879,0.908203,-4.5,1.75,-3.1875,0,0
3,8,2,0.160156,-0.941895,-0.293945,1.5625,2.625,1.1875,0,8,9,0,0.513672,0.915527,2.375,1.75,-2.125,0,0
3,8,2,0.15332,-0.947266,-0.288086,0.3125,1.6875,0.4375,0,8,9,0,0.520996,0.913574,-3.3125,3.5625,-0.125,0,0
3,8,2,0.147461,-0.940918,-0.27832,0.6875,-0.25,0.1875,0,8,9,0,0.510742,0.913574,0.0625,0.4375,-2.625,0,0
3,8,2,0.137695,-0.936523,-0.277344,0.25,-0.0625,-0.1875,0,8,9,0,0.519531,0.921387,-1.3125,1.875,0,0,0
3,8,2,0.141113,-0.939941,-0.278809,-1.5,0.375,-0.25,0,8,9,0,0.516602,0.902344,1.5,0.25,-1.0625,0,0
3,8,2,0.133789,-0.953613,-0.279785,-1.375,0.25,-0.5,0,8,9,0,0.523926,0.910645,2.375,1.25,-0.3125,0,0
3,8,2,0.138672,-0.952148,-0.272461,-1.25,0.625,-0.125,0,8,9,0,0.513672,0.913086,0.4375,0,-0.625,0,0
3,8,2,0.134277,-0.947754,-0.270508,0.6875,-0.875,-1.125,0,8,9,0,0.504395,0.910645,-6,-0.0625,0.125,0,0
3,8,2,0.13623,-0.951172,-0.284668,-0.125,-0.6875,-0.75,0,8,9,0,0.523926,0.921875,6.1875,-0.875,-1.3125,0,0
3,8,2,0.141602,-0.942383,-0.27832,-0.6875,-0.6875,-0.75,0,8,9,0,0.512207,0.908203,-2.5625,1.6875,-0.5625,0,0
3,8,2,0.138184,-0.946289,-0.280762,-1,-0.8125,-1.0625,0,8,9,0,0.529785,0.898438,3.6875,0.625,0.75,0,0
3,8,2,0.143555,-0.945313,-0.276367,-0.5,-2.375,-1.75,0,8,9,0,0.511719,0.917969,-2.25,1.0625,0.9375,0,0
3,8,2,0.14502,-0.953125,-0.280762,-0.375,-2.75,-2.5625,0,8,9,0,0.516602,0.912598,1.0625,0.6875,1.625,0,0
3,8,2,0.146973,-0.952148,-0.277832,-0.5,-2.9375,-2.5625,0,8,9,0,0.530762,0.907715,-1.9375,-0.0625,1.25,0,0
3,8,2,0.144043,-0.946777,-0.277832,0,-2.75,-1.1875,0,8,9,0,0.521484,0.899902,0.625,0.625,2.375,0,0
3,8,2,0.147461,-0.940918,-0.272461,0,-1.9375,0,0,8,9,0,0.525391,0.904297,-1.8125,0.0625,1.4375,0,0
3,8,2,0.152832,-0.944824,-0.279297,-0.4375,-1.75,-0.0625,0,8,9,0,0.52832,0.90332,-1.0625,-0.5,-0.4375,0,0
3,8,2,0.149902,-0.942871,-0.275879,-0.625,-2.0625,-0.375,0,8,9,0,0.525879,0.900391,-1,-0.9375,-0.5625,0,0
3,8,2,0.14209,-0.946289,-0.273926,-0.6875,-1.625,0,0,8,9,0,0.527832,0.910156,0.4375,-1.3125,-0.5625,0,0
3,8,2,0.146484,-0.952637,-0.276367,-0.375,-1.125,0.3125,0,8,9,0,0.519531,0.918457,-1.375,-0.5625,-0.3125,0,0
3,8,2,0.143066,-0.956543,-0.272949,0.3125,-1.3125,0.125,0,8,9,0,0.524902,0.91748,1.5,0.8125,-0.25,0,0
3,8,2,0.128906,-0.956543,-0.26709,1.4375,-0.0625,2.125,0,8,9,0,0.524414,0.918945,-0.75,1.375,-0.3125,0,0
3,8,2,0.131836,-0.960449,-0.263672,2.125,0,2.25,0,8,9,0,0.52002,0.918457,-1.625,1.375,0.3125,0,0
3,8,2,0.124023,-0.996094,-0.241211,4.3125,0.3125,4.5,0,8,9,0,0.519043,0.938477,-2.5,4.375,1.875,0,0
3,8,2,0.120605,-1.11621,-0.15625,11.1875,2,10.8125,0,8,9,0,0.462891,1.0249,-8.125,11.3125,5.3125,0,0
3,8,2,0.109863,-1.18164,-0.0771484,26.25,8,21,0,8,9,0,0.352539,1.20996,-32.5625,30.4375,9,0,0
3,8,2,0.0839844,-1.26563,-0.0200195,53.0625,11.875,37.6875,0,8,9,0,0.359863,1.25049,-50.5625,48.5,13.375,0,0
4,8,2,0.0786133,-1.14111,-0.0864258,77.625,18.8125,52.8125,0,8,9,0,0.42041,1.15088,-73.375,64.9375,13.1875,0,0
4,9,2,0.0415039,-1.08838,-0.105469,80.1875,29.25,62.75,0,9,9,0,0.385742,1.10205,-80.8125,80.1875,16.3125,0,0
4,9,2,-0.019043,-1.01318,-0.0786133,77.5,31.875,68.6875,0,9,9,0,0.378418,1.03564,-75.6875,91.1875,18.25,0,0
4,9,2,-0.120605,-1.10059,0.0302734,78.9375,32.3125,76.0625,0,10,9,0,0.314941,1.07178,-79.25,96.625,13.375,0,0
4,10,2,-0.186523,-0.966797,0.03125,70.6875,30.3125,80.5,0,10,9,0,0.279297,1,-70.4375,106.75,10.25,0,0
5,10,2,-0.224609,-0.941895,0.0532227,66.625,27.8125,81.1875,0,11,9,0,0.211914,0.908203,-65.0625,118.188,6.8125,0,0
5,11,1,-0.282715,-0.824219,0.12207,57,27.9375,81.0625,0,11,10,0,0.151855,0.845703,-52.125,119.188,5.75,0,0
5,11,1,-0.332031,-0.790039,0.19873,41,28,72.6875,0,12,10,0,0.0556641,0.807129,-48.625,113.313,8.5625,0,0
5,11,1,-0.383789,-0.76709,0.240723,33.9375,29.5625,65.0625,0,13,10,0,0.0166016,0.748047,-36,95.375,8.6875,0,0
5,12,1,-0.42627,-0.745605,0.246094,27.8125,28.4375,52.5625,0,13,10,0,-0.0458984,0.73877,-40.4375,73.9375,7.8125,0,0
5,12,1,-0.541992,-0.728027,0.279785,25,28.0625,34.6875,0,13,10,0,-0.0493164,0.678223,-43,59.125,5.3125,0,0
5,12,1,-0.624512,-0.701172,0.285156,22.0625,25.3125,24.1875,0,14,10,0,-0.059082,0.568848,-45.9375,52.0625,7.5625,0,0
5,12,1,-0.683594,-0.625488,0.236328,13.6875,21.5625,16.1875,0,14,10,0,-0.0512695,0.496094,-27.0625,40.875,6.875,0,0
5,13,1,-0.721191,-0.56543,0.206055,-2.125,13.3125,5.6875,0,14,10,0,-0.0761719,0.417969,-16,14.125,3.0625,0,0
5,13,1,-0.698242,-0.607422,0.206543,-12.875,5,-1.375,0,14,10,0,-0.0869141,0.431641,14.9375,-26.75,-7.75,0,0
5,13,1,-0.6875,-0.633789,0.185059,-19.75,-3.9375,-9.1875,0,14,10,0,-0.0981445,0.49707,21.8125,-48.375,-8.6875,0,0
5,12,1,-0.655762,-0.67041,0.207031,-34.5625,-17.875,-22,0,14,10,0,-0.0556641,0.590332,32.75,-65.25,-7.25,0,0
5,12,1,-0.59668,-0.72168,0.211426,-40.25,-27.25,-33.75,0,13,10,0,-0.0356445,0.632324,41.625,-77.5,-8.375,0,0
5,12,1,-0.553711,-0.77002,0.186035,-46.75,-32.9375,-44.875,0,13,10,0,0.03125,0.741699,45.875,-85.5,-12.0625,0,0
5,12,1,-0.477051,-0.822754,0.143555,-50,-41.125,-54.6875,0,12,10,0,0.0268555,0.80957,48.8125,-90.875,-17.1875,0,0
5,11,1,-0.450684,-0.869141,0.171387,-47.4375,-48.4375,-60.5,0,12,10,0,0.0375977,0.888672,42,-85,-18.25,0,0
4,11,2,-0.38916,-0.908691,0.140625,-51.625,-48.125,-60.4375,0,11,9,0,0.050293,1.02881,41.5,-83.625,-25.625,0,0
4,11,2,-0.344727,-0.953613,0.133789,-39.125,-42.1875,-51.5,0,11,9,0,0.0673828,1.00879,35.1875,-75.125,-25.9375,0,0
4,10,2,-0.258789,-1.01221,0.131348,-54,-37.25,-48.4375,0,10,9,0,0.0849609,1.06836,29.0625,-62.8125,-26.875,0,0
4,10,2,-0.269043,-0.983398,0.0942383,-34.8125,-29.5,-41.9375,0,10,9,0,0.102051,1.04297,42.4375,-57.375,-26.4375,0,0
4,10,2,-0.20459,-1.04248,0.0751953,-53.5,-29.5,-36.75,0,10,9,0,0.129395,1.01514,42.5625,-45.1875,-20.8125,0,0
4,10,2,-0.201172,-0.972656,0.015625,-54.0625,-26.0625,-33.125,0,10,9,0,0.147461,1.05469,57.9375,-39.3125,-14.3125,0,0
4,9,2,-0.164063,-1.02393,-0.0283203,-47.6875,-22.375,-28.75,0,9,9,0,0.225586,1.03857,57.5,-34.5625,-8.5625,0,0
4,9,2,-0.14502,-1.02979,-0.0307617,-48.875,-19.6875,-30.0625,0,9,9,0,0.230957,1.0542,45.5,-33.625,-8.5,0,0
4,9,2,-0.11377,-1.01416,-0.0771484,-37.6875,-22.5,-35,0,9,9,0,0.265625,1.04395,35.1875,-37.9375,-8.875,0,0
4,9,2,-0.0571289,-1.00049,-0.113281,-39.1875,-16.875,-34.4375,0,9,9,0,0.291504,1.00732,31.25,-41.375,-8.3125,0,0
3,9,2,-0.043457,-0.999023,-0.16748,-40.5625,-17.5625,-39.0625,0,9,9,0,0.330566,1.02686,41.125,-42.1875,-7.8125,0,0
3,9,2,-0.00341797,-1.02588,-0.205078,-30.625,-17.25,-34.625,0,9,9,0,0.358398,1.05176,37,-40.125,-9.875,0,0
3,8,3,0.00732422,-1.03174,-0.193359,-34.6875,-16.75,-31,0,8,9,0,0.432617,1.03467,37.8125,-26.1875,-6,0,0
3,8,3,-0.00585938,-1.03516,-0.220215,-24.3125,-12.4375,-24,0,8,9,0,0.428223,1.05615,37.4375,-19.9375,-8.3125,0,0
3,8,3,-0.0136719,-1.04736,-0.216309,-22.6875,-9.3125,-17.9375,0,8,9,0,0.448242,1.03076,19.9375,-12.875,-4.0625,0,0
3,8,3,-0.0166016,-1.02148,-0.229004,-10.9375,-7.375,-12.1875,0,8,9,0,0.436035,1.02393,11.375,-11.4375,-5.875,0,0
3,8,3,0.00683594,-1.00439,-0.243652,-5.125,-7.25,-10.0625,0,8,9,0,0.453125,0.981934,1.4375,-7.125,-2.6875,0,0
3,8,3,0.0161133,-0.973145,-0.265625,-0.5625,-4.9375,-7.8125,0,8,9,0,0.456055,0.966309,0,-6.375,0.4375,0,0
3,8,3,0.03125,-0.967285,-0.282715,0.5,-2.3125,-5.8125,0,8,9,0,0.474121,0.953125,1.375,-4.625,1.875,0,0
3,8,3,0.0463867,-0.961426,-0.287598,-1.3125,-1.3125,-2,0,8,9,0,0.48291,0.963379,-1.375,-1.6875,2.1875,0,0
3,8,3,0.0429688,-0.972168,-0.27832,0.625,0.625,0.25,0,8,9,0,0.494629,0.950195,-2.6875,1.375,0.375,0,0
3,8,3,0.0375977,-0.947754,-0.285156,1.4375,0.9375,-0.375,0,8,9,0,0.479004,0.935059,-2,1.5625,-0.875,0,0
3,8,3,0.0444336,-0.962402,-0.292969,2.1875,-1.5625,-3.6875,0,8,9,0,0.469238,0.950684,-3.9375,0.625,-0.375,0,0
3,8,3,0.0615234,-0.976563,-0.266602,6.3125,-3.375,-6.0625,0,8,9,0,0.445801,1.01416,-12.625,2.1875,5.625,0,0
3,8,3,0.0888672,-1.00586,-0.230957,18.875,-3.5,-6.625,0,8,9,0,0.38623,1.08838,-45.8125,7.6875,12.1875,0,0
3,8,3,0.0581055,-0.954102,-0.185059,25.3125,0.3125,-10.375,0,8,9,0,0.287109,1.03564,-83.625,13.9375,23.875,0,0
3,8,3,-0.0444336,-0.82373,-0.253418,22.5,-7.8125,-36.875,0,8,9,0,0.288086,0.963379,-74.3125,-18.3125,20.25,0,0
3,8,3,-0.0585938,-0.86377,-0.261719,6.9375,-23.4375,-57.8125,0,8,9,0,0.345703,0.912598,-23.5,-28.1875,38.0625,0,0
3,7,3,0.0151367,-0.91748,-0.189453,24.375,-24.125,-80.4375,0,8,9,0,0.321289,0.856934,-34,-34.0625,48.1875,0,0
3,7,3,0.167969,-1.12451,-0.174316,27.125,-37.1875,-65.625,0,7,9,0,0.277832,0.887695,-33.375,-58.4375,54.625,0,0
4,7,3,0.150391,-1.21826,-0.154785,28.3125,-53.9375,-36.25,0,7,9,0,0.169922,1.00537,-40.75,-59.125,65.6875,0,0
4,7,3,0.18457,-1.18018,-0.147461,45.6875,-63.9375,-12,0,7,9,0,0.0976563,1.07129,10.625,-59.625,77.875,0,0
4,7,4,0.201172,-1.09619,-0.0942383,51.4375,-70.4375,4.5,0,6,10,0,0.169922,1.05273,14.0625,-41.625,81.6875,0,0
4,7,4,0.195313,-1.02148,-0.11084,55.625,-61.375,20.25,0,6,10,0,0.0400391,1.03906,24.875,-17.5,85.3125,0,0
4,7,4,0.249023,-0.995605,-0.108398,51.625,-47.8125,26.25,0,6,10,0,0.126465,1.05029,41.625,-14.0625,85.5625,0,0
4,8,4,0.267578,-0.96875,-0.0859375,37.625,-29.75,35.3125,0,6,10,0,0.117676,1.04785,27.3125,4.1875,80.9375,0,0
4,8,4,0.228027,-1.03516,-0.0317383,39.125,-20.25,39,0,6,11,0,0.127441,1.02295,29.625,9.0625,71.8125,0,0
4,8,4,0.199707,-0.998535,0.0180664,31.9375,-11.75,43.875,0,6,11,0,0.109375,1.03955,19.9375,12.6875,66.0625,0,0
4,8,4,0.12793,-1.02002,0.0507813,25.375,0.25,46.3125,0,6,11,0,0.0390625,1.07178,17.0625,18.4375,63.5,0,0
4,8,4,0.0883789,-0.961426,0.0410156,23.4375,8.25,46.0625,0,7,11,0,0.0664063,1.08789,24.9375,32.375,60.125,0,0
4,9,4,0.0410156,-0.964355,0.0234375,15.5625,15.375,43.625,0,7,11,0,0,1.0835,10.875,49.0625,66.375,0,0
4,9,4,-0.0166016,-0.929688,0.0297852,12.4375,19.25,39.4375,0,7,11,0,-0.0361328,1.11377,14.75,57.4375,71.6875,0,0
4,9,4,-0.0410156,-0.918945,0.0263672,-1.25,21.8125,32,0,7,12,0,-0.0532227,1.15381,6,71.4375,88.5,0,0
4,9,4,-0.106445,-0.936523,0.0795898,-3.875,16.4375,19.875,0,8,12,0,0.0224609,1.15381,6.5625,74.875,86.1875,0,0
4,9,4,-0.108398,-0.938477,0.104004,4,12.25,10.6875,0,8,12,0,0.0849609,1.14941,-2.75,79.6875,76.6875,0,0
4,9,4,-0.109863,-1.00391,0.117188,1.4375,11.25,4.0625,0,9,12,0,0.187988,1.13086,-6.375,87,50.5,0,0
4,9,4,-0.181152,-1.125,0.212891,7.9375,21.875,15.625,0,9,12,0,0.189453,1.13135,-13.625,105,23.0625,0,0
4,9,4,-0.189453,-1.13818,0.210449,16.375,24.875,27.0625,0,10,12,0,0.183594,1.08691,-5.875,115.25,6.125,0,0
4,10,4,-0.203613,-1.07666,0.198242,25.375,33.8125,47.1875,0,10,12,0,0.20752,1.0332,-9.1875,120.5,-26,0,0
4,10,4,-0.252441,-0.967773,0.157715,26.1875,44.25,63.1875,0,11,12,0,0.17334,0.871582,2.5,123.688,-49,0,0
4,10,4,-0.293457,-0.85791,0.0820313,20.125,54,71.6875,0,12,12,0,0.16748,0.73877,7.25,105.25,-65.1875,0,0
4,11,3,-0.357422,-0.706543,-0.0146484,-2.1875,63.75,70.8125,0,12,12,0,0.210449,0.602051,33.8125,85.8125,-69.125,0,0
4,11,3,-0.446289,-0.597168,-0.0288086,-18.75,60.625,45,0,12,12,0,0.267578,0.484863,79.375,26.75,-94.125,0,0
4,11,3,-0.47998,-0.691406,-0.0561523,-47.0625,48,7.5625,0,12,11,0,0.257324,0.553223,125.75,-21.5,-95.25,0,0
4,11,3,-0.533691,-0.688965,-0.0717773,-58.9375,51.5,-13,0,12,11,0,0.289063,0.715332,125.813,-60.375,-92.5625,0,0
4,11,3,-0.526367,-0.775391,-0.166016,-70.625,47.6875,-40.8125,0,12,11,0,0.333008,0.857422,164.75,-82.75,-87.75,0,0
3,11,3,-0.570313,-0.722168,-0.441895,-96.875,43.6875,-70.0625,0,11,10,0,0.530273,0.831055,138.688,-123.125,-62.6875,0,0
3,11,3,-0.502441,-0.848633,-0.630859,-78.8125,-2.4375,-66.8125,0,10,10,0,0.797363,0.805664,175.938,-152.313,-40.75,0,0
3,10,3,-0.203613,-1.10498,-0.587402,-101.188,-60.5,-68.6875,0,10,10,0,0.702637,0.933105,175,-158.5,-59.5,0,0
3,10,3,-0.107422,-1.46387,-0.260254,-27.1875,-111.813,-59.4375,0,9,9,0,0.555176,0.875,195.063,-195.125,-52.375,0,0
3,10,4,-0.115234,-1.17236,0.263672,-7.0625,-142.125,-59.9375,0,8,9,0,0.47168,0.945313,-31.6875,-230.313,-37.6875,0,0
3,10,4,0.124512,-1.16357,0.239258,59.625,-74.375,-56.1875,0,7,8,0,0.13623,1.30566,-129.438,-192.063,-82.8125,0,0
3,10,4,0.370117,-0.854004,0.29541,51.1875,10.4375,-65.25,0,7,8,0,-0.290039,1.46045,-138.188,-111.375,-27.9375,0,0
4,9,4,0.534668,-1.25098,0.216309,53.0625,144.563,-71.75,0,7,8,0,-0.343262,1.36279,-34.5625,-6.875,60.5,0,0
4,8,3,0.398438,-1.21436,-0.17041,35.8125,212.938,-50.5,0,6,9,0,-0.0927734,1.25732,3.3125,53.9375,165.625,0,0
4,8,3,0.316895,-1.41748,-0.304688,48.375,221.75,-49.125,0,7,9,0,0.564941,1.12695,31.4375,74.8125,212.938,0,0
4,8,2,0.217773,-1.32861,-0.285156,81.8125,220,-45.6875,0,7,10,0,0.550293,1.14014,-37.625,75.125,234.25,0,0
4,8,2,0.257324,-1.45215,-0.179688,99.8125,195.188,-48.125,0,7,11,0,0.474609,1.34961,-75.3125,70.25,245.438,0,0
5,8,1,0.202148,-1.33691,-0.132813,90.6875,185.25,-32.375,0,7,11,0,0.364258,1.3501,-103.813,60.25,236.438,0,0
5,8,1,0.165527,-1.31201,0.0507813,99.5,169.813,-15.125,0,8,12,0,0.22998,1.2749,-108.5,44.25,222.875,0,0
5,8,0,0.143066,-1.2124,0.104492,86.8125,161.125,1.5,0,8,12,0,0.123047,1.27393,-79.4375,73.5625,209.938,0,0
5,9,0,0.0976563,-0.97168,0.0712891,83.3125,156.063,37.5,0,9,13,0,0.10498,0.996582,-22.0625,101.563,171.75,0,0
6,10,0,-0.0957031,-0.813965,0.112305,-12.25,137.25,89.125,0,10,13,0,0.0527344,1.00049,20.8125,131.5,126.563,0,0
5,10,17,-0.119141,-0.854004,0.150391,-23.25,125,101.438,0,11,13,0,0.0112305,0.959473,70.25,154,75.125,0,0
5,11,17,-0.304199,-0.881348,0.270508,-21.75,83.75,122.438,0,11,13,0,0.0351563,0.992188,94.25,158.813,54,0,0
5,12,17,-0.456543,-0.806641,0.300781,-17.25,55.3125,113.563,0,13,13,0,0.102539,0.858887,32.8125,141.688,5.0625,0,0
5,12,17,-0.433594,-0.592773,0.303223,2.5625,39.3125,99,0,13,13,0,0.0634766,0.509766,-2.375,106.813,-28.6875,0,0
5,13,17,-0.390625,-0.240723,0.204102,-15,25.5,74.4375,0,14,13,0,0.03125,0.192871,-26.1875,76.125,-45.75,0,0
5,13,0,-0.449219,-0.11084,0.268555,-10.75,0.9375,18.875,0,14,13,0,-0.193359,0.00830078,-36.125,9.3125,-46.5625,0,0
5,13,0,-0.339844,-0.237305,0.300781,-4.6875,-24.875,-46.125,0,14,13,0,-0.226563,-0.0297852,-23.375,-55.3125,-35.125,0,0
5,13,0,-0.251953,-0.272461,0.322266,15.875,-33.875,-72.6875,0,13,13,0,-0.34082,0.179199,-8.9375,-108.813,-16.9375,0,0
5,12,17,-0.148438,-0.34375,0.230957,-18.125,-33.5625,-132.063,0,13,13,0,-0.20459,0.278809,20.8125,-158.313,-11.375,0,0
5,11,17,0.09375,-0.516113,0.151367,-22.6875,-33.25,-186,0,11,13,0,-0.141113,0.549316,35.9375,-214.125,-7.375,0,0
5,10,17,0.439453,-0.959473,0.194336,-57.9375,-36.1875,-222.188,0,10,13,0,-0.171387,0.883301,32.125,-261.563,-2.25,0,0
5,8,17,0.543457,-1.19482,0.111816,-73.625,-19.5,-238.5,0,9,13,0,-0.0341797,1.0542,65.3125,-258.25,-7.8125,0,0
5,7,17,0.759277,-1.17578,0.0727539,-19.5625,-29.4375,-247.688,0,7,13,0,-0.0112305,0.994629,6.3125,-218.5,-51.5625,0,0
5,6,17,0.887207,-1.25195,0.0297852,-70.625,-34.6875,-240.375,0,6,13,0,0.0131836,1.19287,-39.0625,-245.625,-79,0,0
5,5,17,0.887207,-1.0249,0.0234375,33.125,-41.625,-251.438,0,4,13,0,-0.134766,1.09619,-55.625,-237.438,-114.125,0,0
4,4,17,1.01074,-1.23145,-0.0219727,-74.5625,-65.375,-212.625,0,3,13,0,0.134766,0.974121,-46.25,-187.813,-123.25,0,0
4,3,17,0.958496,-1.40869,0.149414,-15.625,-77.9375,-202,0,2,12,0,-0.0356445,1.22754,-99.6875,-131.188,-159.563,0,0
4,2,0,0.726563,-1.47803,0.0288086,142.125,-146.75,-70.4375,0,2,11,0,0.679199,0.727051,-247.813,-88.875,-225.688,0,0
3,2,1,1.10498,-1.43408,-0.309082,265.063,-221.813,49.5,0,2,9,0,-0.134766,0.76123,-496.75,54.1875,-253.563,0,0
3,4,2,1.16943,-1.3584,-0.332031,279.438,-261.25,170.813,0,3,8,0,-0.208984,0.794434,-281.313,124.75,-215.063,0,0
3,5,3,0.771484,-1.3457,-0.356445,164.438,-177.5,252.563,0,4,8,0,0.174805,0.950684,-201,161.438,-153.5,0,0
4,6,3,0.587891,-1.17139,-0.380859,153.188,-159.25,235.875,0,5,7,0,0.0458984,0.865723,-119.563,179.75,-84.5625,0,0
4,8,4,0.444336,-0.928711,-0.371582,132,-134.625,175.25,0,6,7,0,0.101563,0.825684,-82.625,167.563,-57.9375,0,0
4,9,4,0.484863,-0.530762,-0.263672,132.438,-98.0625,132.313,0,7,7,0,0.234375,0.677246,-27.5,119.938,-29.8125,0,0
4,9,4,0.294434,-0.270508,-0.0175781,41.625,-57.625,87.375,0,7,7,0,0.0908203,0.688477,-48.1875,104.313,-9.6875,0,0
5,9,4,-0.00683594,-0.480469,0.143555,18.375,-46.9375,6.375,0,8,7,0,0.00976563,0.620117,-50.75,38.625,5.3125,0,0
5,9,4,0.230469,-0.497559,0.527832,87.125,-21.3125,-36.4375,0,8,7,0,-0.0512695,0.5625,-12.0625,-47.5,16.625,0,0
5,9,4,0.553223,-0.240234,0.563965,-129.875,29.3125,-58.0625,0,7,7,0,-0.436523,0.451172,-118.688,-91.125,48.625,0,0
5,8,4,0.941406,-0.51123,0.53125,-9.25,140.625,-96,0,7,8,0,-0.348633,0.551758,61.625,-110.438,107.438,0,0
5,8,4,1.06299,-0.64502,0.432617,-93.5,191.5,-115.063,0,6,8,0,-0.492188,0.656738,61.25,-122.688,140.313,0,0
4,7,3,1.27148,-1.1377,0.507324,-106.625,247.375,-123.25,0,6,8,0,-0.733398,0.940918,49.0625,-116.938,157,0,0
4,7,2,1.56934,-1.71729,0.313965,-42.3125,342.813,-132,0,5,9,0,-0.694824,1.3335,21.6875,-150.188,258.188,0,0
5,7,1,1.70459,-1.84131,-0.475098,-20.875,438.813,-102.563,0,6,11,0,-0.101563,1.52344,170.688,-121.813,454.625,0,0
5,7,17,1.625,-1.44775,-0.912598,-44.3125,453.563,-60.9375,0,7,12,0,0.773926,1.21533,280.813,10.3125,486.438,0,0
5,8,17,1.30078,-1.07764,-1.00879,-98.9375,429.25,-9.375,0,8,13,0,1.18213,0.92627,240.5,96.5625,433.813,0,0
5,9,15,0.327148,-0.845215,-0.848145,-60.5625,273.438,61.125,0,8,14,0,1.08594,0.624023,121.563,102.625,345.375,0,0
5,9,15,-0.427246,-0.406738,-1.16211,26.9375,166.188,12.125,0,9,14,0,1.38037,0.254395,59.5,54.1875,184.063,0,0
4,10,15,-0.449707,-0.243652,-1.03174,-0.1875,86.125,-4.1875,0,9,15,0,0.867188,0.279785,-36,27.0625,58,0,0
4,10,14,-0.36084,-0.36084,-0.729004,-50.1875,6.25,-12.5625,0,10,15,0,0.69043,0.424805,86.8125,13.1875,-10.1875,0,0
4,9,15,0.129395,-0.942383,-0.17041,-72.1875,-111.5,-53.9375,0,9,14,0,0.256348,0.885254,30.25,-68.5625,-86.5625,0,0
4,9,15,0.220215,-1.28271,0.0698242,-36.875,-133.313,-54.625,0,9,14,0,0.0454102,1.104,-20.5625,-75.6875,-127.875,0,0
4,9,15,0.286621,-1.3125,0.280273,-7.3125,-119.688,-8.5625,0,9,14,0,-0.411621,1.38867,-18.625,-27.875,-123,0,0
4,9,16,-0.0478516,-1.08447,-0.0678711,29.6875,-102.063,13.4375,0,9,13,0,-0.121094,1.16211,5.8125,-5.3125,-84.8125,0,0
4,9,16,0.0664063,-0.744141,-0.687012,32.6875,-136,-8,0,9,13,0,0.459961,0.750488,84.125,-13.1875,-64.875,0,0
4,9,16,0.0410156,-0.712891,-1.1499,3.125,-177.813,-27,0,8,13,0,1.25977,0.508301,86.3125,-68.1875,-120.563,0,0
4,8,17,0.394043,-0.866211,-1.77783,-19,-295.313,-46.375,0,8,13,0,1.54346,0.355957,68.1875,-102.875,-190.438,0,0
4,8,0,1.60059,-1.33105,-1.83691,32.375,-464.25,-46.5625,0,8,12,0,1.68506,0.403809,6.125,-178.438,-305.063,0,0
4,8,2,2.03027,-1.54639,-1.2876,144.125,-517.063,-21,0,8,10,0,1.64258,0.662598,-92.625,-235.438,-401.25,0,0
5,8,3,2.00879,-1.24658,-0.687988,189.75,-468.438,66.375,0,7,9,0,0.991699,0.818848,-371.813,-188.875,-465.375,0,0
5,8,4,2.01563,-1.10693,-0.10498,116.375,-406.438,143.5,0,7,8,0,0.120117,0.680664,-448,-37.5,-479.938,0,0
5,8,6,2.10205,-0.645996,0.387207,125.875,-356.563,185,0,7,6,0,-1.12988,0.48877,-245.75,212.188,-443.813,0,0
5,9,7,1.58203,-0.711426,0.681152,32.3125,-296.75,160.188,0,8,5,0,-1.12598,0.0234375,-41.0625,242.125,-368.063,0,0
5,9,7,0.805176,-0.310059,0.908203,31.3125,-94.6875,68.5,0,9,4,0,-1.32129,0.397461,-78,143.563,-80.75,0,0
5,9,7,0.394531,-0.0878906,0.595215,0.625,29.625,6.9375,0,9,4,0,-0.526855,0.775879,12.4375,-40.5,71.125,0,0
5,9,7,-0.537598,-1.08594,0.263184,-50.3125,122.188,-53.4375,0,9,5,0,-0.161621,1.02197,31.8125,-98.9375,106.813,0,0
5,9,7,-1.20215,-1.13525,0.0356445,-8,71.3125,-96.6875,0,9,5,0,0.206543,0.98291,-51.4375,-46.3125,74.8125,0,0
5,8,6,-0.540039,-1.25195,0.176758,-21.3125,2.1875,-64.625,0,9,5,0,-0.0791016,1.16943,-88.125,-26.5625,62.25,0,0
5,8,6,-0.0961914,-0.985352,0.304688,9.375,-28.5625,13.25,0,9,5,0,-0.209473,0.991211,56.9375,-27.1875,-9.6875,0,0
5,8,7,0.170898,-0.958496,0.449219,-21.125,-22.6875,11.1875,0,9,5,0,-0.602539,0.816406,-14.875,-45.3125,32,0,0
5,8,6,1.22314,-0.978027,1.0249,4.1875,133.438,-54.5625,0,8,5,0,-0.937988,0.68457,1.25,-68.25,100.5,0,0
5,8,6,1.78125,-1.0459,1.05469,21.25,296.25,-106.25,0,8,6,0,-1.52295,0.570801,-25.125,-155.563,269.438,0,0
5,9,4,2.38135,-1.2373,0.350586,58.1875,511.25,-151.25,0,8,7,0,-1.36816,0.725098,52,-178.375,467.313,0,0
5,9,3,2.47119,-1.11328,-0.26123,29.9375,572.875,-153.5,0,8,9,0,-0.474121,1.29736,172,-113.75,565,0,0
5,9,2,2.17383,-1.4209,-0.562988,-28.6875,535,-145.188,0,9,11,0,0.938965,1.33496,201.125,-7.375,521.938,0,0
5,10,0,2.21045,-1.61719,-1.29932,68.8125,520.875,-145.875,0,9,12,0,1.75928,1.34229,-22.6875,2.5625,487.75,0,0
5,10,16,1.59277,-1.06836,-1.33936,-22.1875,400.875,-111.563,0,9,13,0,1.69092,1.05811,-108.125,-28.625,477.125,0,0
4,10,16,1.02588,-1.20654,-1.54541,-126.313,368.063,-66.5625,0,9,14,0,1.479,0.658203,71.3125,18.5,321.563,0,0
4,9,15,0.144531,-0.945313,-1.20215,-53.3125,241.375,-45,0,9,15,0,1.59473,0.602539,22.75,18.4375,210.125,0,0
4,9,14,-1.09229,-1.10156,-1.53516,-24.3125,112.688,-65,0,9,15,0,1.4585,0.75,21.0625,-16.6875,63.5625,0,0
4,9,14,-0.60791,-1.23242,-1.47021,31.125,-66.8125,-45.6875,0,9,15,0,1.52637,0.990234,-51.6875,-17.5,-86.3125,0,0
4,9,15,-0.250488,-1.06934,-1.48291,10.5625,-186.5,-3.0625,0,9,14,0,1.37451,1.13965,58.125,41.25,-259.438,0,0
4,9,16,0.830078,-1.28174,-1.22314,-3.625,-347.375,35.25,0,9,14,0,1.37158,1.04199,42.5625,50.3125,-338.563,0,0
4,10,17,1.54004,-1.41699,-1.25488,37.6875,-438.875,47.75,0,10,13,0,1.11621,1.24365,56.75,-0.75,-405.125,0,0
4,10,0,1.43115,-1.64795,-1.10938,54.75,-485.063,91.0625,0,10,11,0,1.34619,0.819824,-15.25,-66.0625,-393.438,0,0
5,10,2,1.52637,-1.9082,-0.751953,83.5625,-451.25,141.938,0,9,10,0,0.730469,1.30029,-176,-44.6875,-461.313,0,0
5,10,3,1.47607,-1.69824,-0.228516,119.188,-420.625,156.25,0,9,9,0,0.431152,1.30615,-62.5625,65.0625,-437.563,0,0
6,9,4,1.45654,-0.710938,-0.205566,151.75,-376.563,204.625,0,8,8,0,-0.547852,0.884277,-228.938,180.125,-386.75,0,0
6,9,5,1.33545,-0.411621,0.175781,-56.625,-321.875,279.625,0,8,7,0,-0.595703,0.555664,-57.875,204.938,-386.5,0,0
6,9,6,1.59961,-0.775879,0.644531,-127.875,-275.938,242.5,0,8,5,0,-1.57568,0.19873,-68.9375,236,-299.188,0,0
6,9,7,1.6416,-0.628906,1.25586,-19.5625,-186.125,165.75,0,8,5,0,-2.0415,-0.223633,87.3125,140,-231.938,0,0
6,9,7,1.0293,-0.452148,1.25684,-43.5,82.375,-55.1875,0,8,5,0,-1.41162,0.10791,73.625,-106.938,81.625,0,0
6,9,6,0.720215,-0.536621,0.439941,-20.8125,277.75,-195.563,0,8,6,0,-0.660645,0.497559,109.5,-193.75,328.438,0,0
6,9,5,0.841797,-0.61377,-0.128906,16.625,334.5,-242.313,0,8,7,0,-0.216797,0.833496,246.188,-132.125,378.438,0,0
6,9,4,1.0459,-0.595703,-0.285645,-79.3125,298.063,-215.125,0,8,8,0,0.438477,0.862793,262.938,-64.3125,358.938,0,0
5,9,3,1.11377,-1.22803,-0.59082,-154.438,312,-176.375,0,8,9,0,0.533203,0.947266,119.563,-29.875,347.563,0,0
5,8,3,0.909668,-1.59668,-0.846191,-133.063,291.75,-195.25,0,8,10,0,0.954102,0.915039,51.1875,-83,321.25,0,0
5,7,1,1.00684,-1.36426,-0.716309,-60.5625,238.5,-196.563,0,7,10,0,0.507324,0.797852,139.625,-62.3125,262.563,0,0
5,7,1,1.17285,-1.31104,-0.698242,-143.75,242.75,-175.5,0,7,11,0,1.02441,0.892578,101.688,-76.125,263,0,0
4,6,0,0.947266,-1.41406,-0.692383,-136,237.188,-98.6875,0,6,12,0,0.70459,0.856934,17.5,-50.25,233.438,0,0
4,6,17,0.404785,-1.28613,-0.648438,-102.438,210.625,-52.0625,0,6,13,0,0.576172,0.966309,113.188,-52.5625,189.313,0,0
4,6,17,0.288086,-1.14258,-0.513672,-111,172.688,-12.5,0,6,13,0,0.69043,0.945801,116.313,-44.625,152.375,0,0
4,6,16,0.0400391,-1.12158,-0.339355,-71.125,93.25,19.875,0,5,13,0,0.585938,0.953125,43.6875,-46.125,75.9375,0,0
4,7,16,-0.0209961,-1.02783,-0.291504,-31.375,7.4375,29.9375,0,5,13,0,0.481934,1.00098,-7.9375,-21.1875,-8.5625,0,0
4,7,17,0.254395,-1.00049,-0.199219,18.125,-75.375,24.0625,0,5,13,0,0.29541,0.999023,-20.875,-5.4375,-77.6875,0,0
4,7,17,0.424805,-0.876953,-0.0981445,35.25,-118.438,29.5625,0,5,13,0,0.197754,0.881348,-56.375,9.6875,-126.063,0,0
4,7,17,0.449707,-0.856445,-0.106445,61.5625,-152.375,22.75,0,6,12,0,0.0512695,0.79248,-83.625,26.0625,-143.938,0,0
4,7,0,0.416016,-0.643066,-0.160156,94.1875,-176.938,-7.3125,0,6,12,0,0.0205078,0.701172,-74.625,26.375,-147.625,0,0
4,7,0,0.487305,-0.731934,-0.265625,92.3125,-175.813,-14.375,0,6,11,0,0.13916,0.767578,-56.1875,17.5,-152.25,0,0
4,7,1,0.780762,-0.87207,-0.250977,67.6875,-161.5,1.9375,0,6,11,0,0.0883789,0.959961,-93.75,40.125,-136.75,0,0
4,7,1,0.853027,-1.17041,-0.050293,27.9375,-160.5,40.75,0,7,11,0,-0.15332,1.24268,-86.625,81.9375,-137.625,0,0
4,8,2,0.592285,-1.79395,0.323242,91.75,-148.438,116.063,0,8,10,0,-0.460449,1.61572,-126.25,144.875,-122.688,0,0
5,8,2,0.490723,-1.71582,0.336426,139.813,-123.125,133.438,0,8,10,0,-0.551758,1.67969,-148.375,180.438,-80.75,0,0
5,9,2,0.539063,-1.5791,0.233887,189.5,-80.0625,145.5,0,10,10,0,-0.460449,1.48975,-196.25,203.813,-30.6875,0,0
6,9,3,0.5625,-1.14453,0.138184,204.25,-18.5625,153.25,0,11,10,0,-0.276367,1.18311,-175.875,204.75,32.1875,0,0
6,10,3,0.420898,-0.874512,0.175781,144.75,17.1875,152.25,0,11,9,0,-0.24707,0.975586,-129.125,196.25,56.5625,0,0
6,10,3,0.191406,-0.499023,0.142578,104.125,56.5,149.625,0,12,9,0,-0.145508,0.560059,-55.1875,171.813,63.9375,0,0
7,11,3,0.0205078,-0.337891,0.265137,48.6875,63.5,141.625,0,13,9,0,-0.162109,0.378906,-7.3125,140.563,43.75,0,0
7,12,3,-0.158691,-0.288574,0.3125,35.9375,55.125,116.125,0,14,9,0,-0.148926,0.260742,-3.6875,123.688,30,0,0
7,12,4,-0.243652,-0.248047,0.355469,3,49.375,102.188,0,14,8,0,-0.28125,0.228516,6.125,100.375,10.375,0,0
7,12,4,-0.267578,-0.244141,0.377441,-11.875,39.875,79.75,0,14,8,0,-0.426758,0.24707,-6.9375,40.3125,-20.125,0,0
7,13,4,-0.419434,-0.36084,0.47998,-40,27.5625,9,0,14,8,0,-0.473145,0.290039,11.4375,2.8125,-27.4375,0,0
7,13,4,-0.422852,-0.418945,0.458008,-47.75,21.25,-8.0625,0,14,8,0,-0.44873,0.462891,22.375,-46.4375,-54.9375,0,0
6,13,4,-0.500488,-0.58252,0.38916,-37.875,8,-48.125,0,13,8,0,-0.42041,0.541016,-0.6875,-56.875,-61.875,0,0
6,12,3,-0.558105,-0.722656,0.322754,-52,5.75,-59.8125,0,13,8,0,-0.500977,0.624023,28.25,-62,-76.25,0,0
6,12,3,-0.583008,-0.75,0.304688,-52.75,4.8125,-69.375,0,12,8,0,-0.676758,0.757813,31.1875,-67,-79,0,0
6,12,3,-0.538574,-0.81543,0.254395,-64.4375,8.8125,-70.625,0,11,8,0,-0.649902,0.749023,58.9375,-68.3125,-65.5625,0,0
5,12,3,-0.552246,-0.950195,0.231934,-65.375,2.875,-77.125,0,11,8,0,-0.540039,0.760742,64.25,-73.8125,-58.8125,0,0
5,11,3,-0.464355,-0.953613,0.209473,-71.5625,4.5625,-77.8125,0,10,8,0,-0.594238,0.921387,70.75,-75.5625,-48.6875,0,0
5,11,3,-0.421875,-1.09131,0.206055,-67.4375,2.5625,-77.0625,0,10,8,0,-0.539063,1.02148,69.6875,-62.8125,-33.875,0,0
5,10,3,-0.285156,-1.06885,0.126465,-54.875,4.5,-74.625,0,9,8,0,-0.460449,1.04297,79.0625,-58.875,-27.3125,0,0
4,10,3,-0.169922,-1.12012,0.0742188,-35.9375,3.6875,-62.8125,0,9,8,0,-0.349121,1.1543,48.3125,-44.3125,-31.8125,0,0
4,9,3,-0.0839844,-1.02734,0.0732422,-35,1.75,-60.3125,0,9,8,0,-0.424316,0.994141,68.6875,-9.25,-28.9375,0,0
4,9,2,-0.0546875,-1.01611,0.0307617,-54.6875,14.4375,-73.625,0,9,8,0,-0.282227,1.05322,79.5,-27.0625,-22.8125,0,0
4,9,2,0.0263672,-1.06104,-0.0146484,-40.875,27.75,-74.125,0,8,8,0,-0.19873,1.07861,77.3125,-28.3125,-18.75,0,0
4,8,2,0.124512,-1.06055,-0.027832,-43.75,38.5,-67.6875,0,8,8,0,-0.15625,1.06299,93.8125,-27.6875,-7.25,0,0
4,8,2,0.192871,-1.07861,-0.100586,-46.5,59.125,-55.25,0,8,8,0,-0.0185547,1.06592,103.063,-23,-3.875,0,0
4,8,2,0.169434,-1.06738,-0.0600586,-43.5,75.6875,-50.125,0,8,8,0,0.0185547,1.1416,92.375,-28.3125,-6.5625,0,0
4,7,2,0.196777,-1.0249,-0.0913086,-36.5,96.125,-49,0,8,8,0,0.103027,1.10791,65.3125,-42.75,-8.8125,0,0
4,7,2,0.324219,-0.942871,-0.157715,-36.5,111.438,-48.6875,0,8,8,0,0.149902,1.13672,30.3125,-43.5625,-17.25,0,0
4,7,1,0.411621,-0.90332,-0.174805,-28.625,119.438,-51.5,0,7,8,0,0.158691,1.05713,6.4375,-43.25,-35.0625,0,0
4,6,1,0.541504,-0.838379,-0.184082,-53.125,107.563,-53.5,0,7,8,0,0.131836,1.03613,10.9375,-39.5625,-41.5,0,0
4,6,1,0.566895,-1.01855,-0.163574,-52.75,126.063,-53.9375,0,7,8,0,0.171875,1.0918,7.1875,-56.875,-43.5,0,0
4,5,0,0.587891,-1.09131,-0.12207,-61.5625,117.813,-33.625,0,7,8,0,0.255371,1.18652,-42,-54.8125,-45.8125,0,0
4,5,0,0.617188,-1.20361,-0.0859375,-29.6875,110.75,2,0,7,7,0,0.275879,1.22607,-101.563,-19.5625,-62.5,0,0
4,6,0,0.643066,-1.13135,-0.0839844,-19.5,83.3125,61.5,0,7,7,0,0.0332031,1.08789,-88.5,47.25,-66.25,0,0
4,6,17,0.469238,-1.15479,-0.166016,15.25,75.9375,95.625,0,7,7,0,0.0498047,1.17383,-61.625,67.3125,-63.0625,0,0
4,7,17,0.395996,-1.05225,-0.209473,2.125,64.8125,113.75,0,7,7,0,-0.0898438,1.14111,-76.0625,82.4375,-54.9375,0,0
4,7,17,0.285645,-0.988281,-0.120605,14.25,40.25,131.125,0,8,7,0,-0.119141,1.0376,-89.1875,88.875,-46.25,0,0
4,8,17,0.241211,-0.921875,-0.166992,30.1875,19.9375,122.813,0,8,7,0,-0.0922852,0.932617,-67,78.9375,-22.8125,0,0
4,9,17,0.184082,-0.838379,-0.11084,33,11.4375,111.438,0,8,7,0,-0.0576172,0.838379,-33.5625,63.25,0,0,0
4,9,17,0.0766602,-0.555176,-0.164551,22.125,-1.625,75.8125,0,9,7,0,-0.0214844,0.631836,-21.125,13.625,17.125,0,0
4,9,17,0.183105,-0.156738,-0.327148,8.3125,-20.3125,11.5625,0,8,7,0,-0.0874023,0.492676,54.3125,-37.8125,42.25,0,0
4,9,17,0.369141,-0.110352,-0.366211,-20.625,-56,-85.6875,0,8,7,0,-0.155762,0.466309,161.938,-96.375,69.5,0,0
4,8,17,0.413574,-0.187988,-0.640625,-51.9375,-61.6875,-143.5,0,7,7,0,0.0644531,0.578125,174.875,-151.625,151.813,0,0
3,7,0,0.847656,-1.02344,-1.03076,-109,-185.063,-274.563,0,6,8,0,-0.0234375,0.831055,55.5,-198.438,259.5,0,0
3,6,0,1.1582,-1.4707,-0.818848,-53.9375,-286.063,-280.125,0,4,9,0,-0.343262,1.24561,95.9375,-213.125,344.063,0,0
2,5,2,0.711426,-2.24805,-0.639648,164.563,-448.063,-262.813,0,4,10,0,-0.487305,1.62451,121.875,-179.438,395.563,0,0
3,6,4,1.14307,-2.37549,-1.10645,462.313,-460.125,-48.4375,0,4,12,0,-0.427246,1.80566,231.25,-5.875,480.125,0,0
4,7,5,1.38281,-1.7749,-0.543457,370.938,-408.813,121.75,0,7,13,0,0.64209,1.6958,300.688,243.938,433.438,0,0
4,8,6,1.125,-1.18506,-0.55957,350.75,-230.75,197.438,0,8,14,0,1.32471,1.35156,148.688,309.813,309,0,0
5,9,6,0.633301,-0.700684,-0.306641,176.188,-42.5625,186.125,0,10,14,0,0.70459,0.888184,63.625,297.375,155.938,0,0
5,10,6,0.447266,-0.172363,-0.350586,55.375,32.1875,167.5,0,12,14,0,0.74707,0.363281,27.3125,267.688,79.3125,0,0
5,11,6,0.373047,0.174805,-0.437988,-12.375,62,131.313,0,13,14,0,0.452148,-0.422363,-18.25,178.688,22.5625,0,0
5,11,6,0.691895,0.218262,-0.237793,-114.688,80.125,41.375,0,14,14,0,0.336426,-1.02588,-34.4375,27.25,-24.625,0,0
4,11,6,0.848145,-0.181641,-0.0112305,-169.313,52.8125,-88.625,0,13,14,0,0.240234,-0.974121,-62.25,-110.313,-79.5625,0,0
4,10,5,0.946289,-0.492676,-0.239258,-177.563,119.813,-209.75,0,13,14,0,0.271973,-0.585938,-37.5625,-185.5,-114.063,0,0
3,8,5,1.18555,-0.79248,-0.499512,-149.813,203.313,-285.563,0,11,14,0,0.48291,-0.0117188,30.3125,-269.75,-115.938,0,0
3,6,5,1.8457,-1.05469,-0.930176,-157.188,366.625,-369,0,9,14,0,0.864258,0.413086,117.625,-368.625,-120.375,0,0
3,4,4,2.57861,-1.12109,-1.07764,-255,484.625,-320.25,0,6,14,0,1.48438,0.297363,54.8125,-455.563,-183.188,0,0
5,2,0,4.35156,-1.77734,-0.461426,-534.688,458.688,3.625,0,4,13,0,2.24658,0.45166,-190.938,-467.875,-403.313,0,0
5,4,16,2.31152,-1.27734,-1.4043,-437.813,434.313,305.688,0,2,9,0,0.356934,1.51123,-786.625,140.438,-572.75,0,0
5,6,16,1.84668,-1.54932,-1.42285,-240.875,271.5,413.75,0,4,8,0,-1.50732,0.844727,-842.188,443.25,-283.063,0,0
4,9,15,1.60498,-1.12842,-0.880859,-185.688,21.0625,397.75,0,6,7,0,-0.952148,0.915039,-451.813,461.75,-63.1875,0,0
4,10,16,1.46484,-0.521973,-1.12744,97.4375,-42.75,302.188,0,8,6,0,-0.0805664,0.933105,-343.75,171.875,96.375,0,0
4,12,16,0.743164,-0.0288086,-0.57666,127.25,-16.625,249.5,0,9,6,0,0.114258,0.835938,-298.25,38.5,243.688,0,0
5,14,16,-0.427246,-0.0131836,-0.443359,-104.813,-97.4375,308.375,0,10,7,0,0.0961914,0.556641,-227.5,-133.5,271.75,0,0
5,15,17,-0.353027,0.0854492,-0.54541,-180,-137.875,312.688,0,11,7,0,0.601074,0.338867,-152.75,-212.438,300.563,0,0
7,15,2,-0.325195,-0.190918,-0.192871,-184.875,-212.688,269.5,0,13,9,0,0.506836,0.279785,-125.75,-211.25,382.063,0,0
8,15,3,-0.0820313,0.163574,-0.195313,-140.563,-234.75,243.25,0,14,10,0,0.380859,0.496094,33.875,-193.688,372.688,0,0
9,13,4,0.287109,0.175781,-0.372559,-199.938,-252.563,164.063,0,15,13,0,0.563965,0.136719,179.5,-142.875,361.375,0,0
8,12,5,0.849121,-0.448242,-0.541992,-286.313,-262.313,61.75,0,14,14,0,0.449707,-0.27002,119.125,-104.5,260.5,0,0
7,10,5,1.30566,-0.998535,-0.457031,-323.188,-280.313,-56.5,0,12,14,0,0.867676,-0.175293,-184.125,-251.25,190.313,0,0
6,9,5,1.62402,-1.36621,-0.0776367,-337,-246.313,-169.313,0,10,14,0,0.95752,0.26709,-207.813,-336.875,127.938,0,0
6,7,5,2.17725,-1.60938,-0.0258789,-364.063,-182.875,-238.25,0,9,14,0,0.96875,0.782715,-75.5625,-371.938,74.9375,0,0
4,5,5,2.78662,-1.61621,0.378906,-345.875,-35.875,-401.875,0,6,14,0,1.15381,0.922852,47.125,-399.813,102.125,0,0
4,3,5,2.90088,-1.19141,0.358887,-369.875,133.125,-360.813,0,4,14,0,1.30615,0.758789,-105.5,-379.188,57.0625,0,0
4,1,3,2.44238,-1.50879,-0.0859375,-315.688,316.313,-186.625,0,3,13,0,1.13623,0.734863,-344.25,-295.688,-184.625,0,0
6,1,1,1.97314,-0.808105,-0.222656,-280.625,304.688,-98.25,0,2,10,0,0.472656,0.709473,-647.438,-186.188,-378.188,0,0
6,2,17,1.67236,-0.998047,-0.407715,-188.875,289.625,33.8125,0,4,8,0,-0.483887,0.745117,-608.125,144.438,-408.75,0,0
6,3,17,1.16602,-0.56543,-0.546875,-172.813,256.625,86.1875,0,5,7,0,-0.182129,0.483398,-343.5,162.5,-320.063,0,0
6,5,16,0.726074,-0.569336,-0.314941,-166.313,194.125,148.938,0,6,7,0,0.015625,0.578125,-185.75,143.063,-202.188,0,0
6,6,16,0.481934,-0.63916,-0.105469,-120.25,119.25,171.875,0,7,6,0,0.22998,0.336914,-158.75,73.0625,-93.375,0,0
5,7,16,0.167969,-0.601563,-0.0849609,-20.875,68.875,130.188,0,7,6,0,-0.0322266,0.404297,-90.875,0.75,-12.3125,0,0
5,7,16,0.108887,-0.383789,-0.0732422,28.75,21.6875,42.3125,0,7,6,0,0.0429688,0.344727,-26.375,-9.875,58.75,0,0
5,7,16,0.148926,-0.148438,-0.0981445,10.75,-10.875,-7.1875,0,7,7,0,-0.0458984,0.342285,66.25,-33.375,63,0,0
5,7,16,0.291504,-0.145508,-0.14502,-26.5625,-65.6875,-42.5,0,6,7,0,0.149414,0.591797,135.188,-83.5625,75.9375,0,0
5,6,17,0.46582,-0.565918,-0.22998,16.25,-174.5,-83.3125,0,6,7,0,0.0727539,0.714355,136.313,-85.5625,80.5625,0,0
5,5,0,0.719727,-1.11816,-0.225098,28.75,-294.313,-65.9375,0,5,7,0,0.358887,1.43457,46.6875,-105.875,101.75,0,0
5,5,0,0.910156,-1.52197,-0.275879,84.3125,-342.313,-11.9375,0,5,8,0,0.886719,2.35986,108.125,-62.8125,67.5,0,0
4,5,2,0.770996,-2.0625,0.117676,133.563,-396.938,61.3125,0,5,8,0,0.580566,1.8418,-128.688,76.9375,-49.4375,0,0
4,6,3,1.36523,-1.59082,-0.0258789,273.375,-346.375,137.313,0,6,7,0,0.365234,1.40967,-154.25,133,-87.625,0,0
4,6,4,1.73047,-1.03809,0.247559,270.875,-255.125,173.188,0,7,7,0,-0.137695,0.996094,-92.125,182.875,-43.0625,0,0
5,7,4,2.03516,-0.206055,0.805176,100.938,-17.4375,144.063,0,7,7,0,-0.423828,0.745117,-53.125,85.9375,11.6875,0,0
5,8,4,1.80371,-0.224121,1.01416,73.5625,83.375,82.6875,0,7,7,0,-0.691406,0.730957,-158.938,24.625,130.688,0,0
5,8,4,1.52246,-0.690918,1.08838,80.125,209,-57.8125,0,8,8,0,-0.765137,1.39697,-104.188,-46.875,270.5,0,0
5,8,3,1.28369,-1.13867,0.835449,57.25,275,-134.75,0,8,9,0,-0.318848,1.68994,-128.813,-117.875,322,0,0
6,8,2,1.20508,-1.396,0.0795898,67.3125,373.125,-161,0,9,10,0,-0.350586,1.63672,-190.125,-147.875,363.625,0,0
6,9,1,0.973145,-1.18994,-0.376465,-51.125,402.25,-105.688,0,10,11,0,-0.00927734,1.37939,-138.688,-153.938,432.688,0,0
5,10,0,0.625,-0.844238,-0.554688,-22.375,410,-41.6875,0,11,12,0,-0.127441,1.1709,-6.5,-119.938,454.938,0,0
5,10,17,0.511719,-0.486816,-0.645996,-70.0625,369.938,-11.8125,0,12,13,0,0.625488,0.640625,259.875,45.25,414.625,0,0
4,11,16,0.0683594,-0.376953,-0.766602,-152.5,303.875,27.625,0,13,14,0,1.21484,-0.0224609,194.438,93.6875,252.813,0,0
4,11,16,-0.0322266,-0.497559,-0.615723,-139.313,263.813,41.9375,0,13,15,0,0.870117,-0.0327148,90.125,55.625,151.75,0,0
4,11,15,-0.629883,-0.1875,-0.986328,3.875,119.125,-54.6875,0,13,15,0,1.13428,-0.0864258,-57,-46,78.5625,0,0
4,10,15,-0.222168,-0.361816,-0.607422,53.3125,6.875,-148.625,0,12,15,0,0.839355,-0.115234,-121.688,-114.375,-35.8125,0,0
4,9,15,-0.0415039,-0.32373,-0.424805,97,-54.5,-193.313,0,12,15,0,0.375488,-0.0185547,-119.125,-153.313,-93.0625,0,0
4,8,15,0.257813,-0.289063,-0.511719,179.125,-166.063,-246.438,0,10,14,0,0.520508,0.168945,-44.9375,-289.188,-111.563,0,0
4,6,16,0.925781,-0.442871,-0.637695,146.438,-239.625,-250.75,0,8,13,0,1.24414,0.620117,30.375,-354.875,-137.625,0,0
4,5,17,1.44824,-1.54883,-0.425293,76.3125,-344.25,-121.688,0,6,13,0,1.47949,1.21631,-28.0625,-335.188,-231.875,0,0
3,5,1,1.55664,-2.6875,0.118164,84.0625,-344.813,40.8125,0,5,12,0,1.43848,2.45898,-186.375,-217.063,-367.688,0,0
3,5,1,1.76807,-2.64746,0.269043,169.813,-312.125,152.5,0,6,10,0,0.507324,2.63867,-270.125,45.875,-400.438,0,0
4,7,2,1.91211,-1.86133,0.464844,224.313,-200.125,268.938,0,7,9,0,0.224609,2.01709,-338.875,226.938,-301.625,0,0
4,8,2,1.55762,-1.50244,0.463867,194.813,-131.125,296.938,0,8,9,0,-0.142578,1.12646,-264.813,271.625,-137.688,0,0
5,10,2,0.958008,-0.700684,0.288086,105.563,-26.0625,291.125,0,9,8,0,0.0273438,0.619629,-190.313,249.188,-57.5,0,0
5,11,3,0.556152,-0.454102,0.234375,44.375,10.375,260.938,0,10,8,0,-0.250977,0.162109,-61.4375,204.875,12.25,0,0
5,13,3,0.0703125,0.0214844,0.0996094,1.125,19,190.75,0,11,8,0,0.0195313,-0.212402,8.9375,152.75,1.875,0,0
5,13,3,-0.0541992,0.208496,0.0854492,-5.6875,2.3125,143,0,12,7,0,-0.26709,-0.374023,60.875,91.8125,-15.5,0,0
5,14,3,-0.293945,0.433105,0.0932617,-25.625,-2.875,3,0,12,7,0,-0.329102,-0.361816,45,40.5625,-3.25,0,0
5,14,3,-0.212891,0.286133,0.124023,-58.625,1.25,-76.3125,0,12,7,0,-0.265137,-0.294434,67.6875,-78.5,51.1875,0,0
5,13,3,0.113281,0.0800781,0.00488281,-83.4375,14.375,-175.813,0,12,8,0,-0.0761719,-0.0478516,125.813,-162.875,85.5,0,0
4,11,3,0.569336,-0.274902,-0.0581055,-134.375,41.4375,-250.688,0,11,8,0,0.196777,0.126465,143.438,-212.688,111.938,0,0
4,10,2,1.16211,-0.745605,-0.0200195,-164.938,81.9375,-301.188,0,9,9,0,0.359863,0.722168,176.125,-280.25,169.313,0,0
3,8,2,1.82617,-1.44727,-0.074707,-186.25,160.625,-319.125,0,7,9,0,0.488281,1.15967,179.875,-324.688,235.563,0,0
3,6,2,2.24268,-1.65137,-0.196777,-198.938,239.625,-268,0,5,10,0,0.375,1.71094,163.875,-228.813,316.563,0,0
2,4,2,2.20117,-2.17041,-0.362793,-164.5,346.188,-175.375,0,4,11,0,-0.129883,2.21191,121.875,-94.5625,371.25,0,0
3,3,1,1.99365,-1.96289,-0.572754,-161.063,387.125,-90.375,0,4,13,0,0.733887,1.61133,369.625,140.5,412.813,0,0
4,3,16,1.5752,-1.36621,-0.70166,-249.875,329,135,0,5,14,0,1.20996,1.17334,358.563,282.125,295.625,0,0
4,4,15,1.13965,-1.16992,-0.608398,-185.5,207.813,247.5,0,7,15,0,1.15137,0.901855,195.063,358.063,84.25,0,0
4,5,15,0.926758,-1.13965,-0.609863,-150.813,100.313,280.563,0,8,15,0,1.22754,0.661133,105.313,352.813,-14.875,0,0
4,7,15,0.654785,-0.863281,-0.708496,-45.3125,-15.625,288.25,0,10,15,0,1.11914,0.439941,91.3125,316,-126.375,0,0
4,8,15,0.537109,-0.604492,-0.743652,-55.9375,-81.5625,273.813,0,12,15,0,0.942871,0.273926,46.625,222.75,-192.375,0,0
4,10,15,0.400391,-0.688965,-0.553223,-59.0625,-159.125,231.563,0,13,14,0,0.603027,0.258789,25,135.188,-249.063,0,0
4,11,15,0.354004,-0.584961,-0.371582,-19.375,-187.375,193,0,14,13,0,0.298828,0.336426,-29.25,74.9375,-282.563,0,0
4,11,16,0.245117,-0.427246,-0.253906,-4.0625,-192,175.313,0,14,12,0,-0.059082,0.253418,-40.625,23,-236.5,0,0
4,12,16,0.0615234,-0.244141,-0.0273438,40.375,-187.25,87.0625,0,14,11,0,-0.291992,0.351563,-30.75,-0.375,-212.563,0,0
4,12,17,-0.0258789,-0.197266,0.159668,-30.1875,-184.688,66.9375,0,13,10,0,-0.436035,0.259277,71.875,5,-175.188,0,0
5,12,0,0.0341797,-0.223633,0.248535,-83.3125,-185.375,4.25,0,13,10,0,-0.480469,0.278809,111.25,2.5,-171.688,0,0
5,12,1,0.132324,-0.258789,0.306641,-121.875,-195.563,-21.3125,0,11,9,0,-0.530273,0.457031,142.438,-50.625,-159.625,0,0
5,11,1,0.22998,-0.560547,0.502441,-102.938,-182.75,-68.375,0,11,9,0,-0.425293,0.708496,111.75,-103.063,-143.438,0,0
5,10,2,0.426758,-0.739746,0.485352,-88.75,-161.313,-119.188,0,10,9,0,-0.469727,0.751465,79.3125,-149,-120.625,0,0
5,9,2,0.686035,-0.589844,0.458984,-98.375,-134.438,-140.563,0,8,9,0,-0.336426,0.931641,132.75,-173.5,-83.375,0,0
4,8,2,0.840332,-1.03027,0.359863,-129.563,-113.375,-167.5,0,7,9,0,-0.00927734,1.06738,157.313,-194.25,-21,0,0
4,7,3,1.01807,-1.2373,0.224609,-111.563,-55.8125,-192.313,0,6,9,0,-0.0458984,1.31055,124.25,-183.938,-14.6875,0,0
4,6,3,1.0376,-1.13916,0.239258,-96.4375,-25.1875,-175.625,0,5,9,0,-0.0913086,1.14551,82.6875,-159.5,21.875,0,0
3,5,3,1.08057,-1.48535,0.234863,-124.313,30.9375,-149.375,0,5,9,0,0.09375,1.32422,146.125,-143.063,44.5625,0,0
3,5,3,1.01123,-1.21143,0.121582,-100.563,64.6875,-109.375,0,4,10,0,-0.0117188,1.18213,161.625,-91.75,73.75,0,0
3,4,2,1.12305,-1.05322,-0.0634766,-100.25,108.563,-61.375,0,4,10,0,0.224609,0.979492,107.875,-49,114.938,0,0
3,4,2,0.952148,-1.06494,-0.0986328,-105.25,127.563,-22.5625,0,3,11,0,0.282227,0.817383,209.688,7.9375,115.938,0,0
3,3,1,0.883789,-0.865723,-0.213379,-79.625,143.75,11.8125,0,3,11,0,0.515625,0.708008,192.125,33.125,124.563,0,0
4,3,1,0.805664,-0.776367,-0.175781,-63.9375,133.25,42.3125,0,3,12,0,0.645508,0.611816,113.688,37.1875,105,0,0
4,4,0,0.816406,-0.767578,-0.151367,-75.75,111.125,78.3125,0,4,12,0,0.650391,0.558594,10.6875,34.5625,47.4375,0,0
4,4,0,0.654785,-0.885742,-0.0756836,-75.25,89.625,105.75,0,4,12,0,0.40918,0.638672,24.625,55.1875,0.1875,0,0
4,5,17,0.501953,-0.905273,-0.0854492,-46.6875,72.375,111,0,4,12,0,0.432129,0.599121,15,61.6875,-42.875,0,0
4,5,17,0.397949,-0.771973,-0.194336,-3,44.4375,93.1875,0,5,12,0,0.381348,0.553223,-10.125,43.125,-57.375,0,0
4,6,17,0.378906,-0.525391,-0.22998,17.875,13.25,56.75,0,5,11,0,0.342285,0.562988,-17.0625,19.25,-60.625,0,0
4,6,17,0.376953,-0.391113,-0.29248,-3.3125,-19.9375,12.9375,0,5,11,0,0.32666,0.557617,0.5,-1.6875,-40.625,0,0
4,6,17,0.435547,-0.45752,-0.295898,-13,-50.8125,-43.125,0,5,11,0,0.220703,0.694336,5.375,-13.75,-12.5,0,0
4,5,17,0.484863,-0.48877,-0.321289,-8.5625,-72,-88.75,0,5,11,0,-0.0371094,0.970215,-8.8125,-14.75,7.8125,0,0
3,5,0,0.762695,-0.635254,-0.305664,-3.75,-128.125,-123.25,0,5,11,0,-0.0410156,1.11719,-15.875,-4.625,33.5625,0,0
3,4,1,0.905762,-0.911133,-0.283691,63.5,-171.813,-141.313,0,5,12,0,-0.0864258,1.1792,-21.375,24.4375,66.9375,0,0
3,4,1,0.925781,-0.955078,-0.268066,107.125,-195.125,-115.75,0,5,12,0,0.00244141,1.0957,0.625,47.3125,100.125,0,0
3,4,2,1.04785,-1.11182,-0.173828,251.313,-243.625,-78.0625,0,5,12,0,0.0439453,1.00635,-9.1875,67.0625,130.5,0,0
3,5,3,1.13037,-0.994629,-0.180664,253.938,-234.313,28.3125,0,5,13,0,0.0146484,0.916016,30.75,84.75,132.188,0,0
3,6,4,1.18994,-1.00049,-0.0957031,301.375,-213.688,97.25,0,6,13,0,0.090332,0.887695,66.5625,103,111,0,0
4,6,4,0.904785,-0.735352,-0.00878906,253.438,-167,128.375,0,6,13,0,0.174316,0.859375,40.375,116.75,68,0,0
4,7,5,0.771484,-0.733887,0.0292969,175.938,-129.938,131.625,0,7,14,0,0.166504,0.861328,36.375,119.313,44.25,0,0
5,8,5,0.583496,-0.724609,0.0195313,110.875,-72.8125,124,0,8,14,0,0.158203,0.82666,17.3125,114.75,15.875,0,0
5,8,5,0.458496,-0.584473,0.11377,69,-22.6875,102.063,0,8,14,0,0.136719,0.808105,-8.5625,87.1875,-5.4375,0,0
5,8,5,0.304199,-0.60791,0.193848,18.3125,3.125,62.6875,0,9,14,0,0.212402,0.716797,-8.9375,73.75,-10.8125,0,0
5,8,5,0.293945,-0.534668,0.211914,8.375,10.75,40.375,0,9,14,0,0.232422,0.631836,-27.5,47.375,-11.125,0,0
5,8,5,0.443359,-0.489258,0.20166,-30.875,21.6875,-3.875,0,9,14,0,0.112305,0.587891,-3.1875,15.75,-28.5,0,0
5,8,5,0.583008,-0.589844,0.25,-61.3125,27,-51.5,0,8,13,0,0.0917969,0.606934,-22.4375,-46.125,-28.6875,0,0
5,7,5,0.854004,-0.6875,0.213867,-87.375,54.1875,-91.9375,0,8,13,0,0.320801,0.567871,-41.6875,-107.75,-25.5,0,0
4,7,5,1.01514,-0.783691,0.160645,-58.5,95.6875,-123.5,0,7,13,0,0.196289,0.633789,-69,-135.688,-27.8125,0,0
4,6,4,1.02539,-0.800781,0.0185547,-75.6875,117.25,-144.438,0,6,13,0,0.229004,0.742676,8.5,-149.188,-37.6875,0,0
4,5,4,0.944336,-0.984863,-0.114258,-126.313,163.625,-168.438,0,5,13,0,0.382813,0.764648,49.5625,-188.25,-46.5625,0,0
4,4,3,0.996094,-1.20703,-0.115723,-145.063,205.063,-184,0,4,13,0,0.411621,0.88623,-15.4375,-215,-80.0625,0,0
5,4,2,1.10352,-1.06543,-0.122559,-110.563,255.063,-183.188,0,3,12,0,0.523438,0.748047,-132,-185.5,-165.313,0,0
6,3,0,1.32129,-1.02637,-0.0888672,-155.125,277.625,-133.125,0,3,11,0,0.194824,0.878418,-283.75,-121.688,-225.938,0,0
6,4,0,1.1582,-0.895996,-0.107422,-180.875,284.438,-53.1875,0,3,9,0,-0.206055,0.744629,-476.125,16.125,-327.813,0,0
6,5,17,0.929688,-0.801758,-0.0561523,-232,244.188,61.125,0,4,9,0,-0.381348,0.864746,-405.938,142.688,-327.563,0,0
5,6,16,0.58252,-0.886719,-0.199707,-216,169.125,164.875,0,5,8,0,-0.437012,0.904297,-239.188,225.875,-277.313,0,0
5,7,16,0.367676,-0.882324,-0.21875,-152.875,115.75,176.875,0,7,7,0,-0.0668945,0.697266,-186.188,195.313,-199.375,0,0
5,8,16,0.250977,-0.774902,-0.150879,-83.5625,44.0625,166.375,0,7,7,0,-0.0751953,0.587402,-153.688,169.875,-143.375,0,0
4,9,16,0.12793,-0.720703,-0.0131836,-31.625,-5,128.563,0,8,6,0,0.0249023,0.533203,-79.375,113.625,-76.8125,0,0
4,9,16,0.043457,-0.65332,0.0136719,-2.5,-16.9375,99.3125,0,8,6,0,-0.119141,0.584961,-49.8125,54.6875,-21.9375,0,0
4,9,16,-0.176758,-0.594238,0.0405273,21.25,-12.6875,34.5,0,8,6,0,-0.125977,0.625,-9.4375,-4.8125,5.3125,0,0
4,9,16,-0.0639648,-0.533691,0.0444336,2.4375,-13.3125,-35.1875,0,8,6,0,-0.105957,0.674805,17.6875,-48.125,21.3125,0,0
4,9,16,0.0908203,-0.459473,-0.0263672,-41.375,-34,-98.8125,0,8,6,0,-0.090332,0.721191,61.8125,-91.3125,48.9375,0,0
4,8,17,0.354004,-0.671875,-0.0708008,-6.375,-61.1875,-170.688,0,8,7,0,-0.129395,0.736328,73,-103,57.8125,0,0
4,7,17,0.302246,-0.668457,-0.146484,45.6875,-81,-213.688,0,6,7,0,-0.0800781,0.711914,77.6875,-201.188,130.125,0,0
4,6,17,0.719727,-0.758789,-0.280762,40.625,-125.125,-216.188,0,5,7,0,-0.174316,0.630859,122.688,-209.313,145.625,0,0
4,4,17,1.09521,-0.916992,-0.260742,21.625,-168,-194.563,0,4,8,0,0.0712891,0.810547,149.5,-204.813,196.813,0,0
4,3,0,1.25586,-1.1333,-0.113281,93,-212.875,-161.938,0,3,9,0,-0.252441,0.795898,123,-178.563,236.625,0,0
3,3,1,1.28223,-1.16406,-0.00195313,154.25,-230.188,-102.375,0,3,10,0,-0.429688,0.693359,211.75,-131.188,246.063,0,0
3,3,2,1.28516,-1.4668,-0.00732422,233.688,-272.063,-39.0625,0,3,11,0,-0.287109,0.807129,268.313,-54.5,215.063,0,0
3,4,3,1.52246,-1.04639,0.0185547,383.563,-255.188,107.625,0,4,12,0,-0.0307617,0.766602,216.875,45,194,0,0
4,5,4,1.33838,-0.462402,-0.0297852,333.875,-195.125,198.438,0,4,13,0,0.15625,0.670898,258.375,124.063,171.625,0,0
4,6,4,0.800781,-0.643066,0.0537109,89.75,-111.938,202.5,0,6,13,0,0.424805,0.541016,289.375,182.125,105.938,0,0
4,7,5,0.464844,-0.623535,-0.00537109,59.375,-58.625,147.938,0,6,13,0,0.625488,0.468262,234,189.688,54.6875,0,0
4,8,5,0.281738,-0.634766,0.0195313,36.5,-25.6875,99.5625,0,7,13,0,0.536133,0.505859,107.875,150.25,8.1875,0,0
4,8,5,0.232422,-0.727539,0.0795898,20,-15.625,67.875,0,8,14,0,0.424805,0.634277,41.9375,82.5,-11,0,0
4,8,5,0.157227,-0.758301,0.128418,11.75,-7.1875,26.5,0,8,13,0,0.441895,0.642578,36.5625,41.5,-24.5625,0,0
4,8,5,0.134277,-0.82666,0.18457,6.25,5.5,-0.5625,0,8,13,0,0.444824,0.686035,-18.25,2.625,-36.125,0,0
4,8,5,0.178711,-0.852539,0.137207,-16.9375,24.4375,-18,0,8,13,0,0.419922,0.798828,-34.75,-29.875,-65.6875,0,0
4,8,5,0.133301,-0.879395,0.143066,-25.3125,33.375,-29.1875,0,8,13,0,0.271484,0.908203,-60.5,-57.375,-89.625,0,0
4,8,5,0.216797,-0.912598,0.134766,-30.75,38.75,-42.1875,0,8,13,0,0.349609,0.866699,-48.5625,-77.3125,-89.0625,0,0
4,8,5,0.247559,-0.914551,0.104492,-28.8125,41.0625,-51,0,7,12,0,0.260742,0.971191,-47.75,-104.313,-99.0625,0,0
4,7,4,0.23291,-1.03516,0.0356445,-44.75,52.8125,-54.125,0,7,12,0,0.421875,0.861816,-22.625,-114.75,-99.5625,0,0
4,7,4,0.0576172,-1.23438,-0.0800781,-28.75,53,-46.9375,0,6,12,0,0.514648,0.775879,11.75,-108.75,-114.625,0,0
4,7,4,-0.0639648,-1.08105,-0.13623,-13.25,6.25,-16.1875,0,6,11,0,0.432129,1.08789,51.9375,-85.375,-125.25,0,0
4,7,4,-0.0756836,-1.06445,-0.17041,-34.6875,-30.5625,5.8125,0,6,11,0,0.495117,1.05859,84.625,-78.8125,-128.375,0,0
4,7,4,0.00976563,-1.01416,-0.129883,-23.9375,-56.125,11.1875,0,6,10,0,0.602051,1.07324,26.75,-56.875,-129.75,0,0
4,8,5,0.0717773,-1.04932,-0.0756836,-28.8125,-59.6875,16.4375,0,6,10,0,0.469727,1.07959,-10.3125,-38.9375,-147.563,0,0
4,8,5,0.179688,-1.02637,-0.0922852,-9.5,-57.5,11.9375,0,7,10,0,0.444336,0.93457,-48,-17.6875,-130.25,0,0
4,8,5,0.574219,-0.748535,0.265625,-2.125,-58.875,-8.75,0,7,9,0,-0.561523,1.20605,100.313,-34.5,-126.75,0,0
4,8,5,0.301758,-1.05127,0.09375,3.9375,13.375,-1.1875,0,7,9,0,0.899902,0.522949,6.1875,-32.1875,-70.0625,0,0
4,8,5,0.0874023,-1.06982,0.00390625,4.1875,12.5625,-5.875,0,7,9,0,0.474609,0.668457,-77.125,-1.5,-28.5,0,0
4,8,5,0.0751953,-0.959961,-0.0722656,4,2.5,-7.6875,0,7,9,0,0.523926,0.652832,3,0.25,-10.1875,0,0
4,8,5,0.130371,-0.955078,-0.0776367,-2,4.6875,-0.625,0,7,9,0,0.668457,0.731934,39.5625,11.375,19.0625,0,0
4,8,5,0.131836,-0.979492,-0.0942383,-14.25,8.75,2.0625,0,7,9,0,0.682617,0.745605,27.5,18.75,27,0,0
4,8,5,0.120605,-1.01807,-0.0883789,-7.375,-4.375,-1.25,0,7,9,0,0.797363,0.702637,7.1875,16.6875,19.9375,0,0
4,8,5,0.127441,-1.02734,-0.0634766,3.3125,-14,-6.6875,0,7,9,0,0.722168,0.725098,22.875,18.1875,20.8125,0,0
4,8,5,0.101563,-1.03271,-0.100586,11.75,-26.5,-6.4375,0,7,9,0,0.685059,0.721191,17.4375,22.3125,28.1875,0,0
4,8,5,0.157715,-0.970215,-0.0629883,11.4375,-30.4375,-6.4375,0,7,9,0,0.662598,0.74707,30.875,30.6875,28.375,0,0
4,8,5,0.187012,-0.955078,-0.0224609,-1.625,1.625,5.375,0,7,9,0,0.665527,0.756348,12.25,38.125,44.6875,0,0
4,8,5,0.17334,-0.88623,0.0371094,-7.8125,59.4375,8.75,0,7,10,0,0.660645,0.812988,12.375,41.375,59.1875,0,0
4,8,5,0.169434,-0.968262,0.043457,-27.0625,89.5,9.0625,0,7,10,0,0.673828,0.75293,-4.1875,31.6875,68.375,0,0
4,8,4,0.0874023,-0.888184,-0.0112305,-54.0625,128.813,-3.8125,0,7,10,0,0.664551,0.779785,22.9375,41.625,81.8125,0,0
4,7,4,0.261719,-0.944336,-0.212891,-88.375,142.813,-15.125,0,7,10,0,0.788086,0.687988,72.5625,59.625,79.6875,0,0
3,7,4,0.3125,-0.881836,-0.292969,-113.375,146.813,-13.9375,0,7,11,0,0.791992,0.546387,74.25,74,55.4375,0,0
3,7,3,0.411133,-0.850586,-0.477539,-180,131.125,2.5625,0,7,11,0,0.924316,0.532715,108.25,66.375,19.6875,0,0
3,7,3,0.462891,-0.866699,-0.553711,-118.5,111.688,13.0625,0,7,11,0,0.843262,0.521484,71.375,50.5,10.9375,0,0
2,6,3,0.429199,-0.720215,-0.529785,-78,65.9375,24.25,0,7,11,0,0.791016,0.510742,44.9375,30.375,-0.75,0,0
2,6,2,0.459473,-0.71875,-0.555664,-93.125,48.4375,32.1875,0,7,11,0,0.85498,0.484863,31,17.625,-0.6875,0,0
2,6,2,0.401855,-0.764648,-0.57959,-73.25,22.875,38.6875,0,7,11,0,0.88916,0.467773,31.625,11.25,-5.75,0,0
2,7,2,0.359863,-0.728516,-0.577637,-63.25,13,41.5625,0,7,11,0,0.870605,0.48584,30.125,13.625,-9.5625,0,0
2,7,2,0.317383,-0.795898,-0.608398,-28.3125,-3.125,36.25,0,7,11,0,0.914063,0.469727,9.1875,1.5625,-13.5,0,0
2,7,2,0.276855,-0.699219,-0.648438,9.3125,-23.5,20.9375,0,7,11,0,0.937012,0.450684,-4.3125,-9.6875,-14.5625,0,0
2,7,2,0.237305,-0.714844,-0.62793,10.6875,-34.1875,17.125,0,7,11,0,0.889648,0.453125,1.9375,-10.9375,-15.625,0,0
2,7,2,0.255371,-0.797363,-0.582031,27.4375,-36.5,13.5,0,7,11,0,0.878418,0.478516,-16.125,-21.5,-13.4375,0,0
2,7,2,0.21875,-0.72168,-0.557617,39.1875,-33.625,7.75,0,7,11,0,0.897949,0.472656,-2.875,-19.125,-16.125,0,0
2,8,2,0.172852,-0.811523,-0.493652,-5.875,-7.8125,25.5,0,7,11,0,0.834961,0.487793,-7.875,-17.0625,-17.125,0,0
2,8,2,0.179199,-0.847168,-0.45166,-4.375,14.875,23.125,0,7,11,0,0.813477,0.51123,-10.9375,-14.625,-16.3125,0,0
2,8,2,0.208496,-0.802246,-0.46875,2.875,33.875,14.5,0,7,11,0,0.806641,0.477051,-29.6875,-24,-7.75,0,0
2,7,2,0.243652,-0.688965,-0.561523,-10.0625,54.5625,8.6875,0,7,11,0,0.870605,0.48877,-35.0625,-32.3125,0.1875,0,0
2,7,2,0.270508,-0.69043,-0.61377,-33.625,61.875,21.0625,0,7,11,0,0.818359,0.389648,-77.6875,-54.3125,-25.25,0,0
2,7,2,0.296387,-0.720215,-0.620117,-36.3125,60.125,29.1875,0,7,10,0,0.822754,0.517578,-76.25,-68.5,-29.125,0,0
2,7,1,0.217773,-0.70459,-0.669434,-23.6875,53,22.9375,0,7,10,0,0.746582,0.650879,-41.1875,-59,-24.375,0,0
2,7,1,0.193359,-0.672363,-0.709473,-18.5,47.4375,20.375,0,7,10,0,0.908691,0.634277,-17.25,-53.75,-27.0625,0,0
2,7,1,0.179688,-0.695801,-0.704102,-11.625,32.875,12.1875,0,7,10,0,1.03418,0.783203,-57.3125,-73.8125,-66.9375,0,0
2,7,1,0.180664,-0.671875,-0.710449,-4.0625,22.6875,2.6875,0,7,9,0,0.87207,0.806641,-127.875,-89.625,-129.5,0,0
2,7,1,0.19873,-0.69043,-0.705566,-3.1875,10.9375,-3.25,0,7,9,0,0.540039,0.839844,-118.688,-73.6875,-139.938,0,0
2,7,1,0.280273,-0.734863,-0.654785,-3.375,-2.6875,-4.9375,0,8,9,0,0.496582,0.799316,-106.375,-47.875,-118.25,0,0
2,7,1,0.278809,-0.72168,-0.621094,7,-13.5625,-8.25,0,8,8,0,0.46875,0.819824,-104.188,-45.5,-102.5,0,0
2,7,1,0.242676,-0.717285,-0.624023,12.5,-22.625,-8.4375,0,8,8,0,0.499023,0.893555,-71.875,-33.5625,-81.125,0,0
2,7,1,0.249512,-0.728027,-0.598633,17.625,-27.6875,-18,0,8,8,0,0.404297,0.893555,-77.375,-24.3125,-70.125,0,0
2,7,1,0.288086,-0.719238,-0.604492,26,-29.625,-25.3125,0,8,8,0,0.397461,0.890625,-34.8125,-10.5,-37.3125,0,0
2,7,2,0.351563,-0.757813,-0.566406,25,-31.5,-30.0625,0,8,8,0,0.394531,0.928711,-15.0625,-5.6875,-17.375,0,0
2,7,2,0.233398,-0.758301,-0.415039,33.9375,-41.875,-23.9375,0,8,8,0,0.294922,0.851563,-10.125,11.3125,9.8125,0,0
2,7,2,0.202148,-0.796387,-0.555176,31.125,-35.25,-36.9375,0,8,8,0,0.321289,0.937988,30.625,14.1875,31.875,0,0
2,7,2,0.192383,-0.855469,-0.558105,29.75,-25.25,-56.75,0,8,8,0,0.501465,1.10596,51.0625,-5.0625,22.875,0,0
2,7,2,0.236816,-0.790527,-0.497559,23.75,-27.9375,-54.9375,0,8,8,0,0.512695,1.06787,-39.5,5.1875,0.1875,0,0
2,7,2,0.323242,-0.774902,-0.45459,33.875,-37.125,-50.625,0,8,8,0,0.272949,0.841309,-64.8125,19.125,8.875,0,0
2,6,2,0.371582,-0.778809,-0.440918,74.8125,-43.3125,-56.0625,0,8,8,0,0.34375,0.836426,-2.0625,19.1875,27.375,0,0
2,6,3,0.469727,-0.790527,-0.428711,46.6875,-41.5625,-74.75,0,8,8,0,0.310547,0.915527,53.8125,-0.0625,33.8125,0,0
3,6,3,0.460449,-0.766113,-0.355469,44.0625,-28.4375,-66,0,8,8,0,0.5,1.11377,94.75,-14.1875,36.125,0,0
3,6,3,0.491211,-0.769531,-0.344727,26.6875,-31.625,-39.0625,0,8,8,0,0.484863,0.962402,-16.25,8.25,29.8125,0,0
3,6,3,0.566895,-0.836914,-0.325195,37.125,-25.75,-39.0625,0,8,8,0,0.414551,0.880859,6.625,-12.125,18.625,0,0
3,6,3,0.505371,-0.791992,-0.311523,39.875,-18.5,-32.8125,0,8,8,0,0.571777,0.944824,23.75,-23.5,8,0,0
3,5,3,0.515625,-0.760254,-0.280273,25.125,-2,-14.9375,0,8,8,0,0.523438,0.95459,-8.6875,-16.5,-13.0625,0,0
3,5,3,0.510254,-0.874512,-0.328613,-26.3125,5.1875,0.1875,0,8,8,0,0.437988,1.00635,-22.75,-12.1875,-21.0625,0,0
3,5,3,0.500488,-0.790039,-0.306641,-9.4375,20.875,3.4375,0,8,8,0,0.430664,0.944824,-24.4375,-12.5,-23.8125,0,0
3,5,3,0.523926,-0.781738,-0.316895,-13.25,22.6875,9.625,0,8,8,0,0.416504,0.947754,-19.5625,-12.0625,-26.75,0,0
3,5,3,0.561035,-0.77832,-0.31543,-8.8125,28.875,10.75,0,8,8,0,0.415039,0.953613,-4.25,-14.5,-25.9375,0,0
3,5,3,0.560059,-0.746582,-0.335938,-12.0625,32.5,12.8125,0,8,8,0,0.46582,0.942871,2.5,-14.6875,-29.625,0,0
3,5,3,0.515137,-0.762207,-0.340332,-23.9375,35.1875,13.625,0,8,8,0,0.445313,0.961914,-4.9375,-22.625,-41.625,0,0
3,5,3,0.527832,-0.786133,-0.345215,-24.0625,34.4375,13.25,0,8,7,0,0.440918,0.974609,-16,-22.375,-43.1875,0,0
3,5,3,0.477539,-0.821777,-0.349609,-36.8125,38.0625,18.3125,0,8,7,0,0.431152,0.946289,-23.8125,-21.375,-45.25,0,0
3,5,2,0.492188,-0.838867,-0.358887,-31.875,39.4375,18.1875,0,8,7,0,0.422363,0.972656,-19.25,-22.6875,-45.0625,0,0
3,5,2,0.494141,-0.798828,-0.342773,-23.5625,34.125,22.125,0,8,7,0,0.382813,0.962402,-10.6875,-17.9375,-35.625,0,0
3,5,2,0.472656,-0.798828,-0.336914,-21.8125,32,24,0,8,7,0,0.453613,0.945801,13,-6.8125,-9,0,0
3,6,2,0.508789,-0.841797,-0.32666,-30,10.6875,30.6875,0,8,7,0,0.413086,0.94043,16.8125,-0.9375,1.8125,0,0
3,6,2,0.48584,-0.857422,-0.348145,-14.4375,0.4375,30.3125,0,8,7,0,0.407715,0.969727,46.3125,29.9375,44.5625,0,0
3,6,2,0.484375,-0.823242,-0.334473,-8.4375,-6.375,36.6875,0,8,7,0,0.339844,0.938477,39.0625,54.5625,81.375,0,0
3,6,2,0.384766,-0.854492,-0.375,-11,3.8125,37.4375,0,8,8,0,0.318848,0.844727,92.875,77.8125,138.938,0,0
3,6,2,0.317383,-0.825684,-0.42041,-12.375,13.25,35.875,0,8,8,0,0.478027,0.892578,98.3125,87.5625,158.625,0,0
3,6,2,0.301758,-0.839355,-0.496582,-27.3125,19.875,45.875,0,8,9,0,0.56543,0.868164,115.125,100.563,151.5,0,0
3,7,2,0.288086,-0.842285,-0.539063,-28.5625,16.75,57.4375,0,7,9,0,0.686035,0.805176,94.25,109.375,126.063,0,0
3,7,2,0.196777,-0.812988,-0.535645,-19.4375,17.625,66.0625,0,8,10,0,0.931152,0.713867,150.688,129.375,89.25,0,0
3,7,1,0.129883,-0.757813,-0.509277,-12.5625,19.9375,61.1875,0,8,10,0,1.0791,0.487305,114.438,135.25,62.8125,0,0
3,7,1,0.138184,-0.72998,-0.500488,1.375,20.8125,36.125,0,8,10,0,0.737793,0.521973,-2.6875,85.875,48.375,0,0
3,7,1,0.191406,-0.72168,-0.538574,-1,16.25,12.375,0,8,10,0,0.911621,0.449219,-0.25,25.9375,21.3125,0,0
3,7,1,0.224121,-0.762207,-0.540039,-3.375,4.25,0.9375,0,8,10,0,0.809082,0.525391,-5.125,-3.0625,5.5,0,0
3,7,1,0.191406,-0.805664,-0.521484,-6.3125,-4.6875,-7.8125,0,8,10,0,0.80127,0.618164,-5.4375,-10.4375,2.8125,0,0
2,7,1,0.184082,-0.830566,-0.489258,-5.125,-7.75,-12.5,0,8,10,0,0.78125,0.693359,4.875,-9.1875,2.0625,0,0
2,7,1,0.204102,-0.889648,-0.448242,-3.375,-6.9375,-12.3125,0,8,10,0,0.786133,0.725098,2.5625,-6.625,2.375,0,0
2,7,1,0.211426,-0.884277,-0.44873,-1.8125,-6.1875,-9.6875,0,8,10,0,0.787598,0.711914,1.6875,-2.625,0.1875,0,0
2,7,1,0.22168,-0.883301,-0.447754,-0.6875,-2.6875,-4.0625,0,8,10,0,0.778809,0.690918,-2.9375,-2.1875,-1,0,0
2,7,1,0.223145,-0.857422,-0.44043,0.9375,-1.625,-2.6875,0,8,10,0,0.757324,0.661133,-3.3125,-1.625,0.25,0,0
3,7,1,0.214355,-0.848633,-0.445313,0.5,1.5,-1.75,0,8,10,0,0.776367,0.638184,-3.6875,-2.375,2,0,0
3,7,1,0.217285,-0.835938,-0.463867,1.6875,2.4375,-2.125,0,8,10,0,0.787109,0.639648,-3.1875,-3.5625,3,0,0
3,7,1,0.217285,-0.84082,-0.465332,-1.5,2.375,-2.4375,0,8,10,0,0.79541,0.646484,-2.1875,-4.9375,1.4375,0,0
3,7,1,0.197754,-0.844727,-0.458496,-0.5625,1.25,-2.4375,0,8,10,0,0.79541,0.650391,-0.8125,-3.25,-0.375,0,0
3,7,1,0.213379,-0.851563,-0.456543,-0.375,0.4375,-2.5625,0,8,10,0,0.790039,0.668945,-0.5625,-1.875,-0.5625,0,0
3,7,1,0.223633,-0.853027,-0.441895,-0.5,-0.8125,-2.375,0,8,10,0,0.790527,0.65918,0.4375,-2.3125,-1.4375,0,0
3,7,1,0.224121,-0.853027,-0.447266,-0.0625,-1.625,-2.5,0,8,10,0,0.779297,0.664063,-3.0625,-2.9375,-1.6875,0,0
3,7,1,0.228027,-0.842285,-0.449707,0.0625,-1,-2.3125,0,8,10,0,0.783691,0.657227,-0.9375,-2.3125,-1.75,0,0
3,7,1,0.227051,-0.845703,-0.44873,-1.6875,0.3125,-1.375,0,8,10,0,0.777344,0.663574,-3.375,-2.375,-1.8125,0,0
3,7,1,0.217773,-0.838867,-0.451172,-2,1.25,-1.875,0,8,10,0,0.774902,0.658203,-3.25,-2.625,-1.5,0,0
3,7,1,0.216797,-0.852051,-0.467773,-0.9375,0.5625,-3.5625,0,8,10,0,0.778809,0.663086,-2.9375,-2.625,-1.375,0,0
3,7,1,0.222168,-0.842773,-0.463867,-0.5625,-0.5,-4.4375,0,8,10,0,0.773926,0.658691,-2.375,-2.4375,-0.4375,0,0
3,7,1,0.214844,-0.84668,-0.461426,-0.25,-1.9375,-4.375,0,8,10,0,0.775879,0.666504,-0.9375,-2.1875,-0.25,0,0
3,7,1,0.214844,-0.840332,-0.458496,-1,-1,-3.1875,0,8,10,0,0.770508,0.669922,-1.0625,-1.1875,0.375,0,0
3,7,1,0.217773,-0.854004,-0.450195,-0.5625,-0.4375,-1.75,0,8,10,0,0.770996,0.67334,-0.5,-1.625,0,0,0
3,7,1,0.233887,-0.84668,-0.459961,-0.375,-0.8125,-0.875,0,8,10,0,0.770508,0.668457,-1.625,-1.8125,1.5,0,0
3,7,1,0.236328,-0.848633,-0.459961,-0.5,-1.0625,-0.8125,0,7,10,0,0.777344,0.674316,-2.625,-0.75,1.5625,0,0
3,7,1,0.232422,-0.836914,-0.458496,0,-0.625,-1.1875,0,7,10,0,0.76709,0.669922,-1.375,-0.125,0.875,0,0
3,7,1,0.225586,-0.835449,-0.461914,0,-0.0625,-1.375,0,7,10,0,0.774902,0.669434,0.3125,-0.3125,0.75,0,0
3,7,1,0.233398,-0.835449,-0.460449,-0.9375,-0.4375,-1.9375,0,7,10,0,0.761719,0.67627,-1.1875,-0.25,0.3125,0,0
3,7,1,0.228027,-0.840332,-0.45752,-0.1875,-1.1875,-2.75,0,7,10,0,0.768066,0.668945,-0.375,-0.6875,0.9375,0,0
3,7,1,0.22998,-0.84375,-0.460938,-0.8125,-0.9375,-2,0,7,10,0,0.767578,0.666504,-1.375,-1.875,0.375,0,0
3,7,1,0.236816,-0.844238,-0.460938,-1.0625,-1.0625,-1.1875,0,7,10,0,0.768066,0.672852,-1.0625,-2.125,1,0,0
3,7,1,0.231445,-0.845215,-0.449707,-0.875,-1,-1.125,0,7,10,0,0.773438,0.669434,-0.5625,-2.375,0.6875,0,0
3,7,1,0.231934,-0.843262,-0.452148,-0.75,-0.6875,-1.125,0,7,10,0,0.774902,0.681152,-1.6875,-2.0625,-0.375,0,0
3,7,1,0.233887,-0.833008,-0.450195,-0.0625,2.1875,-4.625,0,7,10,0,0.758789,0.668945,-3.0625,-1.75,1.625,0,0
3,7,1,0.219727,-0.848145,-0.453613,-0.5625,1.8125,-4.1875,0,7,10,0,0.76416,0.678711,0.3125,-2.3125,3.875,0,0
3,7,1,0.235352,-0.836426,-0.467773,0,0.6875,-1.875,0,7,10,0,0.773438,0.679199,-1.6875,-0.4375,0.0625,0,0
3,7,1,0.242676,-0.852051,-0.45752,-1.125,-1.4375,0.6875,0,7,10,0,0.780762,0.672363,-0.9375,1.375,-1.5625,0,0
3,7,1,0.231445,-0.836914,-0.455566,-0.1875,-1.6875,-0.3125,0,7,10,0,0.763184,0.674316,-0.0625,2.375,-1,0,0
3,7,1,0.227539,-0.833496,-0.445801,0.0625,-0.75,-2.0625,0,7,10,0,0.754395,0.671387,-1,-0.75,0.75,0,0
3,7,1,0.233398,-0.835449,-0.460449,-1.375,-0.375,-2.25,0,7,10,0,0.768555,0.682617,-1.875,-2,1.4375,0,0
3,7,1,0.247559,-0.841309,-0.452637,-0.1875,-2.3125,-1.6875,0,7,10,0,0.766602,0.671387,-0.9375,0.1875,-0.375,0,0
3,7,1,0.231934,-0.834473,-0.459961,-0.5,-0.375,-3.375,0,7,10,0,0.768066,0.672363,0.625,0.5625,1.625,0,0
3,7,1,0.232422,-0.838379,-0.454102,-2.0625,0.75,-2.625,0,7,10,0,0.762695,0.682617,-0.125,-3.4375,1.75,0,0
3,7,1,0.245605,-0.835938,-0.459473,-1.3125,-0.1875,-0.5,0,7,10,0,0.761719,0.680664,-2.875,-3.0625,0.3125,0,0
3,7,1,0.249512,-0.84668,-0.455078,-1.4375,-0.75,-0.0625,0,7,10,0,0.769043,0.675781,-6.8125,-1.125,0.125,0,0
3,7,1,0.232422,-0.830566,-0.458984,-1.75,0.6875,-2.1875,0,7,10,0,0.747559,0.684082,-0.75,0.4375,1.25,0,0
3,7,1,0.235352,-0.838379,-0.465332,-0.125,0.3125,-3.1875,0,7,10,0,0.744629,0.682617,-2.5625,-0.9375,2.4375,0,0
3,7,1,0.24707,-0.839844,-0.465332,-0.5,-0.5625,-2.125,0,7,10,0,0.766113,0.68457,-1.9375,-1.25,1.125,0,0
3,7,1,0.234375,-0.846191,-0.460449,-1.3125,-0.375,-0.4375,0,7,10,0,0.765137,0.67334,-0.8125,0.5,0.3125,0,0
3,7,1,0.230957,-0.837402,-0.458984,-0.5,0.3125,-0.1875,0,7,10,0,0.763184,0.67627,0.3125,0.8125,0,0,0
3,7,1,0.245605,-0.840332,-0.462891,-0.4375,0.125,0.8125,0,7,10,0,0.760742,0.681152,-0.4375,-0.5625,-0.5625,0,0
3,7,1,0.23584,-0.841797,-0.458984,-1.4375,0.5,2.25,0,7,10,0,0.762207,0.678711,-0.6875,-0.875,-0.375,0,0
3,7,1,0.237305,-0.837402,-0.459473,-1.3125,0.25,0.625,0,7,10,0,0.76123,0.686035,-0.875,-1.3125,-0.25,0,0
3,7,1,0.232422,-0.835938,-0.460449,-0.8125,0,-0.5625,0,7,10,0,0.755859,0.683105,-0.375,-0.6875,-0.3125,0,0
3,7,1,0.227051,-0.83252,-0.462891,-1.0625,-0.5625,-0.6875,0,7,10,0,0.755371,0.675781,-0.5625,-0.25,-0.0625,0,0
3,7,1,0.241699,-0.842773,-0.464844,-1.625,-1.5625,1.5,0,7,10,0,0.76123,0.683594,-1.75,-0.6875,0.4375,0,0
3,7,1,0.25293,-0.897461,-0.439453,8.0625,-2.0625,2,0,7,10,0,0.790039,0.677246,-7.875,-0.6875,1.125,0,0
3,7,1,0.192383,-0.813965,-0.455566,21.5,-7.0625,-8.5,0,7,10,0,0.733887,0.697754,-14.4375,-6.3125,1.4375,0,0
3,7,1,0.209473,-0.873535,-0.454102,14.9375,-10.3125,-9.875,0,7,10,0,0.746582,0.688477,-11.0625,-7.4375,-0.125,0,0
3,7,2,0.248047,-0.881836,-0.438477,45.25,-7.375,-7.25,0,7,10,0,0.741211,0.684082,-27.125,-3.75,1.0625,0,0
3,7,2,0.24707,-0.832031,-0.395996,14.125,-19.625,-4.9375,0,7,10,0,0.711914,0.725098,-0.375,-3.8125,-0.1875,0,0
3,7,2,0.211914,-0.887207,-0.381348,19.625,-27.375,-13.5,0,7,10,0,0.743652,0.714844,2,-1.875,-1.9375,0,0
3,7,2,0.20459,-0.869629,-0.372559,24.625,-32,-17.9375,0,7,10,0,0.746094,0.731934,-8.9375,-8.375,-5.8125,0,0
3,7,2,0.182129,-0.905273,-0.410645,12.625,-41.75,-20.875,0,7,10,0,0.77832,0.703613,-11.625,-19.6875,-18.4375,0,0
3,7,2,0.140625,-0.888184,-0.425293,17.3125,-59.375,-24.625,0,7,10,0,0.787598,0.67041,-18.3125,-31.375,-26.875,0,0
3,7,2,0.137695,-0.909668,-0.429199,18.3125,-72.75,-24.5,0,7,10,0,0.755371,0.675293,-17.625,-53.4375,-47.1875,0,0
3,7,2,0.101074,-0.938477,-0.436035,28.8125,-92.875,-16.875,0,7,10,0,0.739258,0.724609,-22.5625,-54.3125,-50.375,0,0
3,7,3,0.146973,-0.93457,-0.363281,28.125,-96.1875,-6.75,0,7,9,0,0.721191,0.772949,-23.1875,-43.4375,-52.5,0,0
3,8,3,0.197266,-0.901367,-0.319824,22.375,-89.125,-4.6875,0,7,9,0,0.685059,0.783691,-15.4375,-35.5,-47.6875,0,0
3,8,3,0.210938,-0.918457,-0.328613,20.8125,-78.5625,-6.3125,0,7,9,0,0.670898,0.77002,-14.3125,-34.0625,-44.3125,0,0
3,8,3,0.230957,-0.897461,-0.312012,19.3125,-67.6875,-7.8125,0,7,9,0,0.654785,0.76416,-20.5625,-27.625,-34.6875,0,0
3,8,4,0.218262,-0.891602,-0.281738,11.875,-45.125,-8,0,7,9,0,0.622559,0.76123,-11.5,-22.3125,-29.375,0,0
3,8,4,0.202637,-0.873047,-0.286133,5,-33.5,-10.1875,0,7,9,0,0.643555,0.755371,-1.125,-12.0625,-19,0,0
3,8,4,0.15332,-0.901367,-0.29248,-6.6875,-22.1875,-17.125,0,7,9,0,0.647949,0.758789,3.625,-7.5,-11.9375,0,0
3,8,4,0.118652,-0.909668,-0.305664,-7.9375,-18.875,-24.5,0,7,9,0,0.688477,0.770996,3.6875,-9.1875,-7.5625,0,0
3,8,4,0.112793,-0.915039,-0.317871,-8.9375,-19.1875,-27.1875,0,7,9,0,0.638184,0.766113,6.625,-12.0625,-4.8125,0,0
3,8,4,0.161133,-0.981445,-0.287598,-10.4375,-6.3125,-14,0,7,9,0,0.694336,0.761719,2.875,-11.1875,0.25,0,0
3,7,4,0.125488,-0.943359,-0.31543,-13,1.625,-6.8125,0,7,9,0,0.708008,0.764648,3.3125,-9.5,1.875,0,0
3,7,4,0.148926,-0.934082,-0.35791,-3.5625,-2.625,-8.75,0,7,9,0,0.69873,0.766113,0.6875,-4.375,0.5,0,0
3,7,4,0.134766,-0.929688,-0.374512,-0.75,0.125,-2.75,0,7,9,0,0.725586,0.763672,2.0625,-0.5625,0.625,0,0
3,7,4,0.143555,-0.90625,-0.37207,0,-0.125,-0.4375,0,7,9,0,0.711426,0.756836,0.625,2.125,-1.3125,0,0
3,7,4,0.141113,-0.911621,-0.368652,-1.125,1.375,1,0,7,9,0,0.698242,0.762207,-1.8125,1.8125,-1.125,0,0
3,7,4,0.138184,-0.905762,-0.35498,0.5,0.0625,0.75,0,7,9,0,0.69043,0.754395,-2.375,-0.125,-0.75,0,0
3,7,4,0.144043,-0.915039,-0.367676,0.625,-0.375,-0.5,0,7,9,0,0.708008,0.748047,-3,-0.8125,0,0,0
3,7,4,0.149902,-0.898926,-0.359863,0.0625,-0.5,-0.625,0,7,9,0,0.699219,0.746094,-1.5,-0.9375,0.375,0,0
3,7,4,0.140625,-0.912109,-0.372559,-0.8125,-0.375,-0.8125,0,7,9,0,0.70752,0.741211,-0.375,-1.0625,0.4375,0,0
3,8,4,0.143066,-0.909668,-0.362793,-0.8125,-0.6875,-0.625,0,7,9,0,0.701172,0.751465,0.75,-0.6875,0.75,0,0
3,8,4,0.138672,-0.913574,-0.362305,-1.3125,-0.625,-1.125,0,7,9,0,0.702148,0.753906,-0.0625,0,0.5625,0,0
3,8,4,0.137207,-0.916992,-0.360352,-1,-0.3125,-0.75,0,7,9,0,0.701172,0.759766,0,-0.3125,0,0,0
3,8,4,0.139648,-0.904785,-0.367188,-1.6875,-0.5,-1.125,0,7,9,0,0.698242,0.755371,-0.0625,-0.375,0.875,0,0
3,8,4,0.138184,-0.908691,-0.382324,-5.25,-1.5625,-1.4375,0,7,9,0,0.704102,0.750977,-1,-0.5,0.6875,0,0
3,8,4,0.138184,-0.905273,-0.360352,-1.9375,-1,-0.125,0,7,9,0,0.696777,0.741699,-0.625,0.625,1.3125,0,0
3,8,4,0.140137,-0.905762,-0.368652,-2.625,0.0625,-0.125,0,7,9,0,0.706543,0.740723,0.375,0.25,1.5,0,0
3,8,4,0.146484,-0.925781,-0.364746,-2.75,0,-1.875,0,7,9,0,0.695313,0.749512,0.3125,-1.75,1.5,0,0
3,8,4,0.138672,-0.916016,-0.378906,0.25,-0.9375,-3.375,0,7,9,0,0.718262,0.750488,1.125,-1.125,1,0,0
3,8,4,0.141602,-0.901367,-0.376465,-0.5,-0.75,-3.125,0,7,9,0,0.697754,0.740723,0.5625,-0.8125,1.0625,0,0
3,8,4,0.145996,-0.901855,-0.374023,-1.1875,-1.125,-2.875,0,7,9,0,0.705078,0.751953,1.5,0.1875,1.4375,0,0
3,8,4,0.143555,-0.909668,-0.370605,-1.75,0.0625,-2.4375,0,7,9,0,0.705566,0.749023,1.625,0.0625,1.125,0,0
3,8,4,0.14502,-0.917969,-0.375977,-1.3125,-0.375,-2.625,0,7,9,0,0.70459,0.746094,2.125,-1.1875,0.9375,0,0
3,8,4,0.161133,-0.912109,-0.375,-0.0625,0.125,-1.5625,0,7,9,0,0.713379,0.747559,-0.9375,-0.5,0.4375,0,0
3,8,4,0.144531,-0.902344,-0.371582,0.5,-1.3125,-3.6875,0,7,9,0,0.712402,0.737793,0.625,-0.375,0.5,0,0
3,8,4,0.149414,-0.902344,-0.365723,-1.9375,-0.8125,-4.8125,0,7,9,0,0.699219,0.736816,1.6875,-1.3125,0.875,0,0
3,7,4,0.152832,-0.907715,-0.378418,-1.6875,-0.8125,-4.75,0,7,9,0,0.710449,0.740723,1.75,-3.4375,1.125,0,0
3,7,4,0.150391,-0.905273,-0.368652,-1.625,-0.3125,-2.625,0,7,9,0,0.720215,0.749512,1.9375,-3,0.8125,0,0
3,7,4,0.158691,-0.908203,-0.378906,-1.0625,0.375,-1.125,0,7,9,0,0.706055,0.739746,-2,-1.9375,0,0,0
3,7,4,0.157227,-0.893555,-0.371582,-0.1875,-0.1875,-0.9375,0,7,9,0,0.71875,0.729004,-2,-0.25,-0.75,0,0
3,7,4,0.158203,-0.900391,-0.371094,-0.75,0.75,-2.3125,0,7,9,0,0.702637,0.723633,1.6875,0.125,0.4375,0,0
3,7,4,0.146484,-0.907227,-0.370117,-3.0625,-0.4375,-5.25,0,7,9,0,0.701172,0.745605,5.1875,-4.25,2.5625,0,0
3,7,4,0.152344,-0.917969,-0.380859,-0.0625,-1.625,-4.8125,0,7,9,0,0.711426,0.759277,-0.25,-4.6875,2.5625,0,0
3,7,4,0.155762,-0.916504,-0.39502,2.3125,-2.375,-2.25,0,7,9,0,0.727051,0.751953,-5,-2.375,0.125,0,0
3,7,4,0.157227,-0.871094,-0.393066,0.9375,-0.5,2.5625,0,7,9,0,0.723145,0.729492,-7.6875,3.25,-1.1875,0,0
3,7,4,0.158203,-0.911133,-0.366211,-3.9375,-1.625,-0.625,0,7,9,0,0.692383,0.73584,1.0625,-0.75,1.8125,0,0
3,7,4,0.17041,-0.92041,-0.367676,-0.375,-0.4375,-1.75,0,7,9,0,0.712402,0.746094,-2,-3.3125,0.3125,0,0
3,7,4,0.170898,-0.910645,-0.391113,2.0625,-0.6875,-1.4375,0,7,9,0,0.724121,0.740234,-3.9375,-2.4375,-1.25,0,0
3,7,4,0.155762,-0.893555,-0.385254,1.75,-1,0.1875,0,7,9,0,0.710449,0.72998,-3.0625,0.9375,-1.375,0,0
3,7,4,0.15332,-0.876953,-0.380859,-0.3125,-0.75,0.8125,0,7,9,0,0.687012,0.728516,0.75,1.4375,-0.1875,0,0
3,7,4,0.163086,-0.928223,-0.35791,-3.375,-1.75,-2.25,0,7,9,0,0.710449,0.763184,1.3125,-5.25,1.25,0,0
3,7,4,0.168457,-0.916992,-0.359375,2.25,-1.5625,-1.25,0,7,9,0,0.730957,0.760254,-4,-3.8125,-1.75,0,0
3,8,4,0.163086,-0.896484,-0.388184,3.0625,0.375,1.4375,0,7,9,0,0.71582,0.716309,-9.4375,1.75,-4.25,0,0
3,8,4,0.146973,-0.894531,-0.372559,-1.9375,0,0.25,0,7,9,0,0.693848,0.734375,1.5,2,-0.625,0,0
3,8,4,0.166992,-0.908691,-0.356934,-0.5,-0.3125,-2.6875,0,7,9,0,0.688965,0.756348,2.9375,-2.5,1.875,0,0
3,8,4,0.162598,-0.911621,-0.377441,0.5625,-0.1875,-3.0625,0,7,9,0,0.708496,0.761719,-0.5,-3.9375,0.125,0,0
3,7,4,0.158203,-0.907227,-0.391113,2.5,-0.25,-0.875,0,7,9,0,0.713867,0.742676,-4.75,-0.75,-1.9375,0,0
3,8,4,0.138672,-0.884766,-0.378906,-3.25,-1.125,-0.75,0,7,9,0,0.70166,0.737305,0.1875,1.875,0.9375,0,0
3,8,4,0.147461,-0.912109,-0.355469,-4.5,-1.5625,-3.375,0,7,9,0,0.685059,0.74707,3.4375,-0.625,3.5625,0,0
3,7,4,0.162598,-0.924316,-0.368164,-1.875,-1.375,-4.6875,0,7,9,0,0.703125,0.760254,1.4375,-3.0625,2.9375,0,0
3,7,4,0.165039,-0.912109,-0.390625,2.3125,-1.9375,-3.125,0,7,9,0,0.719238,0.758301,-3.0625,-1.5,-0.125,0,0
3,7,4,0.161133,-0.887207,-0.38623,3.1875,-1.25,0.5,0,7,9,0,0.720703,0.743652,-3.9375,1.4375,-1.25,0,0
3,7,4,0.151855,-0.883301,-0.373047,-0.5625,-0.4375,0,0,7,9,0,0.695801,0.730469,-0.125,2.875,-0.625,0,0
3,7,4,0.160645,-0.904785,-0.365723,-2.625,-0.0625,-1.5625,0,7,9,0,0.69043,0.756836,3.6875,-1.6875,2.0625,0,0
3,7,4,0.15918,-0.912109,-0.373047,-0.25,-0.4375,-2.5625,0,7,9,0,0.705566,0.750977,0.0625,-3.875,1.5,0,0
3,7,4,0.155273,-0.908691,-0.387695,0.4375,-1.375,-1.4375,0,7,9,0,0.716797,0.759277,-0.5625,-3.375,0,0,0
3,7,4,0.157715,-0.890625,-0.392578,1.4375,0,1.625,0,7,9,0,0.695801,0.73584,-5.8125,2.5625,-1.5,0,0
3,8,4,0.144531,-0.884766,-0.38916,-2.125,0.75,1.4375,0,7,9,0,0.691895,0.730957,1.625,2.9375,0.375,0,0
3,8,4,0.160645,-0.90625,-0.352539,-3,0.1875,-0.8125,0,7,9,0,0.695313,0.742188,3.9375,0.0625,2.6875,0,0
3,8,4,0.160645,-0.914551,-0.380371,-0.125,-0.25,-1.6875,0,7,9,0,0.713379,0.751953,0.4375,-1.25,1.125,0,0
3,8,4,0.166016,-0.911621,-0.381348,1.6875,0,-0.5625,0,7,9,0,0.719238,0.745117,-0.8125,0.4375,-0.0625,0,0
3,8,4,0.145508,-0.89502,-0.391602,-0.5,1.25,0.875,0,7,9,0,0.709961,0.731445,0,3.4375,-0.5625,0,0
3,8,4,0.145508,-0.908203,-0.37207,-3.125,0.5,-0.5625,0,7,9,0,0.691406,0.741211,2.9375,1.25,1.5625,0,0
3,8,4,0.155273,-0.916504,-0.362793,-1.5625,0.0625,-2.1875,0,7,9,0,0.708008,0.758789,1.625,-0.9375,2.125,0,0
3,8,4,0.155762,-0.906738,-0.385254,-0.375,-0.375,-1.6875,0,7,9,0,0.715332,0.74707,-1.375,-0.6875,0.75,0,0
3,8,4,0.15332,-0.89209,-0.371582,-1.6875,-0.8125,-1.9375,0,7,9,0,0.713379,0.724609,-0.1875,0.5625,1.5625,0,0
3,8,4,0.154297,-0.881348,-0.371582,-5,-0.0625,-4.1875,0,7,9,0,0.700195,0.720703,1.9375,-0.0625,4.0625,0,0
3,7,4,0.165527,-0.878418,-0.373535,-8.0625,0.5625,-7.5625,0,7,9,0,0.679688,0.712891,4.5,-3,8,0,0
3,7,4,0.17334,-0.918945,-0.361328,-9.1875,0.75,-14.25,0,7,9,0,0.697754,0.731934,10.125,-9.8125,11.5,0,0
3,7,4,0.211426,-0.907227,-0.372559,-1.125,1.125,-13.5,0,7,9,0,0.732422,0.752441,4.875,-12.0625,11.4375,0,0
3,7,4,0.257324,-0.904785,-0.331055,7,9.0625,-8.5,0,7,9,0,0.663086,0.746094,-8.6875,-9.125,13.3125,0,0
3,7,4,0.354492,-0.936035,-0.272461,14.0625,26.9375,-3.75,0,7,9,0,0.58252,0.71875,-31.5625,-11.625,38.875,0,0
3,7,4,0.404785,-0.791992,-0.265137,20.875,54,2.25,0,7,9,0,0.439453,0.634277,-52.25,-22.1875,85.5625,0,0
3,7,4,0.456055,-0.937012,-0.19043,5.1875,94.4375,-10,0,6,9,0,0.321777,0.715332,-44,-38,101.188,0,0
3,7,3,0.461426,-0.924805,-0.120117,4.1875,121.313,-18.5625,0,6,9,0,0.374023,0.680176,42.9375,-53.5,134.938,0,0
3,6,3,0.562012,-0.92041,-0.0610352,21.5625,172.313,-31.9375,0,5,10,0,0.330078,0.659668,-6.4375,-48.4375,181.938,0,0
4,6,2,0.691406,-0.869629,-0.0400391,-2.3125,203.25,-59.125,0,4,10,0,0.110352,0.660645,38.25,-50.5625,204.938,0,0
4,5,2,0.848633,-1.01807,-0.0151367,-20.125,226.25,-54.0625,0,3,11,0,0.0078125,0.699219,76.125,-39.3125,214.625,0,0
4,5,1,0.905273,-0.969727,-0.0478516,-36.875,228.313,-22.5,0,3,12,0,0.00439453,0.675781,100.813,-9.1875,200.688,0,0
5,5,0,0.861816,-0.925781,-0.0844727,-62.25,217.438,35.25,0,3,12,0,-0.0449219,0.674316,105.25,32.8125,184.438,0,0
5,6,0,0.546875,-0.868164,-0.179688,-73.75,191.25,66.625,0,3,13,0,0.213867,0.651855,91.6875,58.1875,153.375,0,0
5,6,17,0.393066,-0.777344,-0.201172,-63.125,168.25,65.375,0,4,14,0,0.314941,0.574707,57,57.375,136.938,0,0
5,7,17,0.249512,-0.67627,-0.193848,-43.375,120.188,39.5625,0,4,14,0,0.311035,0.558105,39.9375,44.4375,113.75,0,0
4,7,17,0.206055,-0.627441,-0.166016,-23.125,80.5625,8.1875,0,4,14,0,0.355957,0.423828,19.5625,20.9375,68.1875,0,0
4,7,17,0.207031,-0.447754,-0.254883,-1.9375,29.4375,-47.25,0,4,14,0,0.348633,0.418945,-26.8125,-15.625,8.5625,0,0
4,6,17,0.3125,-0.640137,-0.283691,37.375,-55,-108.125,0,4,14,0,0.341797,0.427246,-18.25,-31.25,-23.8125,0,0
5,5,17,0.472656,-0.609863,-0.370117,82.5625,-127.813,-127.188,0,4,14,0,0.456543,0.482422,15.25,-49.5,-70.5,0,0
4,5,17,0.652344,-0.797363,-0.352539,54.375,-169.688,-110.625,0,3,13,0,0.507324,0.731934,12.25,-50.75,-139.875,0,0
4,4,0,0.839844,-1.15674,-0.152344,47.375,-211.25,-44.875,0,3,12,0,0.491699,1.02246,-72.25,-29.875,-220.375,0,0
4,4,1,0.921875,-1.43652,0.0195313,60.5625,-219.25,21.0625,0,4,12,0,0.396973,1.19238,-133.438,13.25,-263.688,0,0
4,5,1,1.01904,-1.56494,0.185059,126.375,-215.813,111.563,0,5,11,0,0.276367,1.16846,-224.563,95.1875,-290.438,0,0
4,6,2,1.07227,-1.38379,0.106445,179.625,-178.813,190.063,0,6,10,0,0.0942383,1.05859,-229.188,190.75,-255.188,0,0
4,7,2,0.869629,-0.993652,0.0463867,140.563,-115.813,236.313,0,8,10,0,0,0.896484,-179.125,226.5,-180.5,0,0
4,9,3,0.452637,-0.83252,0.0825195,82.875,-69.9375,231.5,0,9,9,0,0.0185547,0.746094,-115.563,218.188,-140.313,0,0
5,10,3,0.163086,-0.54248,0.0761719,42.125,-25.6875,182.438,0,10,9,0,-0.012207,0.581055,-62.5625,161.938,-95.0625,0,0
5,10,3,0.0151367,-0.540527,0.149902,19.8125,-9.6875,132.625,0,10,9,0,-0.0385742,0.538086,-9.8125,101.938,-51.875,0,0
5,11,3,-0.0874023,-0.502441,0.20752,16.25,8.875,57.8125,0,11,9,0,-0.0634766,0.556641,13.9375,28.9375,-16.375,0,0
5,11,3,-0.138672,-0.485352,0.208008,-7.75,13.375,5.5625,0,11,9,0,-0.0942383,0.626465,29.625,-18.9375,0.8125,0,0
5,11,3,-0.105469,-0.521973,0.137207,-35.8125,18,-78.375,0,10,9,0,-0.0161133,0.639648,55.375,-81.875,31.625,0,0
4,10,3,-0.00976563,-0.557129,0.0927734,-53.4375,24.4375,-166.188,0,10,9,0,0.00439453,0.61084,70.25,-133.25,58.3125,0,0
4,8,3,0.296387,-0.693848,0.03125,-73.375,44.5,-237.563,0,9,9,0,0.0825195,0.704102,61.625,-187.813,91.25,0,0
4,7,3,0.619629,-0.858887,0.0112305,-83.6875,77.125,-265.313,0,8,9,0,0.162598,0.804688,54,-221.125,121.375,0,0
4,6,2,0.997559,-0.949707,0.0224609,-122.563,120.375,-262.313,0,6,10,0,0.11377,0.816895,91.8125,-226.125,174.125,0,0
4,4,2,1.17676,-1.08154,-0.0253906,-135.125,185.75,-234.313,0,5,10,0,-0.0629883,0.785156,137.5,-218.875,199.75,0,0
4,3,1,1.26953,-0.975098,0.0644531,-153.938,175.813,-204.875,0,3,11,0,0.0200195,0.789063,207.063,-185.563,204.375,0,0
4,3,0,1.23193,-1.04297,-0.0629883,-151,196.813,-117.75,0,2,12,0,0.270996,0.712891,176.313,-95.4375,204.875,0,0
5,2,17,0.928711,-0.852051,-0.131836,-133.563,170.563,-44.625,0,2,13,0,0.249023,0.73291,166.625,-29.0625,161.875,0,0
5,3,16,0.861328,-0.746582,-0.132813,-110.563,134.563,13.0625,0,2,14,0,0.361328,0.710449,147.188,10.6875,134.188,0,0
5,3,16,0.736816,-0.740723,-0.100098,-129.875,99.375,55.5625,0,2,14,0,0.327637,0.672363,106.813,61.25,73.125,0,0
5,4,16,0.609375,-0.913574,-0.0703125,-106.813,43.875,106.813,0,3,14,0,0.336426,0.666504,67.1875,90.75,9.875,0,0
5,4,16,0.574219,-1.00293,-0.00195313,-36.3125,3.1875,128.438,0,3,14,0,0.300781,0.684082,26.5625,93.75,-25.75,0,0
4,5,16,0.541016,-1.10693,-0.0205078,-35.5,-21,145.375,0,4,14,0,0.209961,0.649414,-32.375,83.5,-54.5,0,0
4,6,16,0.481445,-1.23584,-0.0454102,-28.1875,-37.375,172.625,0,4,14,0,0.340332,0.527344,-100.625,58.4375,-82.5625,0,0
4,7,16,0.390137,-1.27637,-0.128906,1.375,-63.75,181.063,0,4,13,0,0.0161133,0.561523,-146.938,51,-83.8125,0,0
4,8,17,0.384277,-1.03223,-0.209961,35.5,-76.125,174.438,0,5,13,0,-0.0400391,0.598145,-18.25,45.1875,-89.0625,0,0
4,9,17,0.282227,-0.938477,-0.210449,19.875,-102.438,175.688,0,5,13,0,0.0913086,0.668945,-31.9375,20.625,-103.063,0,0
4,10,17,0.160645,-0.788086,-0.190918,31.8125,-130.438,159.313,0,5,12,0,0.0458984,0.719727,-55.9375,6,-109.125,0,0
5,10,0,0.15625,-0.711426,-0.129883,30.6875,-152.563,137.813,0,5,12,0,0.0644531,0.750488,-63.125,-9.5,-101.438,0,0
5,11,0,0.097168,-0.535645,-0.141602,8.8125,-160.875,123.375,0,5,12,0,0.00585938,0.726074,-62.625,-3.5,-93.5625,0,0
5,11,1,0.119629,-0.626465,-0.0844727,-39.6875,-201.5,97.8125,0,5,11,0,0.0209961,0.708496,-47.875,-13.4375,-78.8125,0,0
5,11,2,-0.00585938,-0.574219,0.00585938,-76.4375,-210.438,76.625,0,5,11,0,0.00537109,0.724121,-33.9375,-15.125,-67.5,0,0
5,11,2,0.0629883,-0.807617,0.166016,-106,-200.875,18.75,0,5,11,0,-0.0351563,0.742188,-22.6875,-22.625,-48.4375,0,0
5,10,3,0.034668,-0.757813,0.194824,-105.75,-196.125,-36.9375,0,4,11,0,-0.0478516,0.720703,-12.9375,-24.8125,-30.9375,0,0
5,10,3,0.185547,-0.972656,0.325684,-131.188,-161.938,-98.8125,0,4,11,0,-0.0332031,0.710449,-5.5625,-31.875,-16.3125,0,0
4,9,4,0.441895,-1.06641,0.380859,-88.6875,-111.375,-138.313,0,4,11,0,-0.0302734,0.701172,1.6875,-37.9375,-3.4375,0,0
4,8,4,0.600586,-1.0459,0.400879,-72.5625,-78.625,-160.625,0,4,11,0,-0.0341797,0.669922,12.5,-37.5625,15.75,0,0
4,7,4,0.717285,-1.11816,0.339355,-94.625,-34.1875,-150.938,0,4,11,0,-0.00292969,0.647461,26.0625,-42.4375,30.3125,0,0
4,6,4,0.743164,-1.2998,0.266113,-86.75,22.5625,-142.313,0,3,11,0,0.0170898,0.65625,38,-43.4375,38.0625,0,0
4,5,4,0.752441,-1.01367,0.136719,-37.4375,41.9375,-134.375,0,3,11,0,0.0478516,0.645508,43.75,-45.6875,45.6875,0,0
4,5,4,0.764648,-1.0293,0.00341797,-38.875,79.125,-93.625,0,3,11,0,0.0957031,0.609375,34.0625,-41.6875,46.5625,0,0
4,4,3,0.779297,-0.902832,-0.0249023,-41.0625,101.438,-62.4375,0,3,12,0,0.0869141,0.596191,34.375,-36.5,43.4375,0,0
4,4,3,0.754395,-0.921387,-0.103027,-97,122,-32.9375,0,2,12,0,0.102051,0.557129,44.1875,-26.4375,31.8125,0,0
4,4,2,0.697754,-0.902832,-0.0961914,-52.5625,122.813,-20.9375,0,2,12,0,0.122559,0.540527,41.5,-14.125,19.8125,0,0
4,4,2,0.690918,-0.814941,-0.166016,-51.5,104.5,4,0,2,12,0,0.136719,0.566895,31.9375,-10.5625,5.4375,0,0
4,4,2,0.571777,-0.806152,-0.187988,-49.3125,78.8125,26.4375,0,2,12,0,0.139648,0.576172,26.3125,-4.625,0.5,0,0
4,4,1,0.589844,-0.787598,-0.162598,-39.0625,65.0625,38.875,0,2,12,0,0.142578,0.595215,17.3125,2.75,-11.9375,0,0
4,4,1,0.552246,-0.738281,-0.154297,-43.9375,49.625,51,0,3,12,0,0.147461,0.553711,31.5625,18.3125,-23.6875,0,0
4,5,1,0.529785,-0.821289,-0.0849609,-29,9.875,63.1875,0,3,12,0,0.191895,0.57666,29.0625,29.5625,-37.0625,0,0
4,5,1,0.449219,-0.842285,-0.0942383,-22.0625,-9.8125,67.25,0,3,11,0,0.262695,0.596191,43.75,48.375,-57.875,0,0
4,6,1,0.419434,-0.927734,-0.0498047,-19.625,-29.125,69,0,3,11,0,0.317871,0.635254,31.1875,59.25,-67.9375,0,0
4,6,1,0.359375,-0.959961,-0.0561523,-5.125,-52.0625,63.75,0,4,11,0,0.373535,0.649414,26.9375,61.875,-81.0625,0,0
4,7,2,0.34375,-0.908691,-0.0522461,-3.6875,-59.8125,52.0625,0,4,11,0,0.412109,0.65918,35.9375,65.9375,-83.625,0,0
4,7,2,0.337402,-0.922363,-0.0629883,-11,-60.25,48.3125,0,5,11,0,0.484863,0.685059,34.9375,71.0625,-82.75,0,0
4,7,2,0.313477,-0.910156,-0.0805664,-12.5625,-62.0625,42.6875,0,6,11,0,0.600586,0.69043,1.375,67.5,-86,0,0
3,7,2,0.195313,-0.958496,-0.154785,-5.9375,-72.5625,26.1875,0,6,11,0,0.577637,0.72998,-59.0625,57.4375,-88.3125,0,0
3,7,2,0.163574,-0.927246,-0.237305,-9.875,-88.8125,7.875,0,7,10,0,0.529785,0.736816,-67.9375,47.1875,-86.75,0,0
3,8,3,0.121094,-0.974609,-0.258301,-1.75,-116.813,-10.875,0,7,10,0,0.556152,0.702148,-43.6875,19.4375,-87.4375,0,0
3,8,3,0.0991211,-0.979004,-0.333008,12.5,-144.625,-27.625,0,7,10,0,0.510254,0.684082,-54.6875,-26.4375,-91,0,0
3,8,3,0.109375,-1,-0.220215,26.75,-175.875,-35.625,0,7,10,0,0.48877,0.845215,-58.375,-55.1875,-80.1875,0,0
3,8,4,0.144043,-1.02539,-0.25293,59.9375,-163.813,-30,0,7,10,0,0.614258,0.87793,-95.1875,-57.6875,-65.5625,0,0
3,8,4,0.266602,-1.06055,-0.115234,65.875,-158.813,-24.4375,0,7,9,0,0.419922,0.96582,-149.5,-61.9375,-78.9375,0,0
4,8,5,0.268555,-1.06787,-0.0805664,79.3125,-116.188,2.1875,0,7,9,0,0.297363,1.03564,-133.688,-58.25,-91.5,0,0
4,8,5,0.32373,-0.902832,0.0112305,67.6875,-104.188,6.0625,0,7,9,0,0.19043,1.02002,-152.25,-34.3125,-88.6875,0,0
4,8,5,0.30957,-0.914551,-0.00341797,49.125,-72.4375,3.4375,0,7,9,0,0.00732422,1.06104,-156.438,-19.8125,-86.625,0,0
4,8,5,0.274414,-1.02588,0.0859375,11.9375,-28.25,13.25,0,7,8,0,-0.131348,0.981934,-133.688,-12.1875,-66.0625,0,0
4,8,5,0.090332,-1.07813,0.154785,25.875,2.25,32.9375,0,7,8,0,-0.100098,0.927734,-96.125,-6.3125,-56.9375,0,0
4,8,5,-0.0297852,-1.06738,0.128906,20.875,2.4375,30.75,0,7,8,0,-0.165039,0.928711,-111.188,-2.1875,-43.4375,0,0
4,8,5,-0.0141602,-1.01758,0.116699,44.25,5.0625,28.5,0,6,8,0,-0.135742,0.95459,-56.4375,-0.8125,-42.25,0,0
4,8,5,-0.00976563,-0.966309,0.12793,44.0625,12.5625,18.1875,0,6,8,0,-0.196289,0.952637,-47.8125,9.0625,-39.5625,0,0
4,9,5,-0.012207,-0.95752,0.0976563,41.0625,10.375,9.625,0,6,8,0,-0.242188,0.960938,-37.5,15.5,-39.1875,0,0
5,9,5,0.0112305,-0.883301,0.106934,33.625,1.4375,8.1875,0,6,7,0,-0.29248,0.899414,-34.3125,15.8125,-35.0625,0,0
5,9,5,0.0605469,-0.915039,0.18457,17.375,12.3125,4.75,0,6,7,0,-0.322754,0.862305,-24.5,15,-25.625,0,0
5,9,5,0.0351563,-0.960938,0.259766,7.6875,20,-7.3125,0,6,7,0,-0.365723,0.913086,-26.25,15.1875,-7.9375,0,0
5,9,5,0.046875,-1.01611,0.316406,8.8125,22.5625,-14.625,0,6,7,0,-0.372559,0.92334,-23.375,11.4375,-2.6875,0,0
5,8,5,0.129883,-0.987305,0.304688,18.5,27.0625,-22.375,0,6,7,0,-0.390625,0.924316,-18.5,4.375,-3.625,0,0
5,8,5,0.183594,-1.00195,0.368164,14.125,51.1875,-28.9375,0,6,7,0,-0.419922,0.871094,-5.5625,-0.375,10.25,0,0
5,8,5,0.215332,-1,0.316895,22.1875,63.6875,-42.875,0,6,7,0,-0.416016,0.870605,3,-8.375,33.625,0,0
5,8,4,0.19043,-1.0083,0.292969,16.6875,84.5625,-49.375,0,6,8,0,-0.415527,0.899414,36.625,-23.9375,65.0625,0,0
5,8,4,0.17041,-1.00635,0.266602,18.1875,106,-54.875,0,6,8,0,-0.351563,0.894531,46.375,-26.4375,91.25,0,0
5,8,4,0.179199,-1.03125,0.279785,12.875,125.125,-53.9375,0,7,8,0,-0.386719,0.932617,55.1875,-33.625,135.625,0,0
5,8,3,0.11377,-0.959473,0.245605,10.6875,140.938,-53.4375,0,7,9,0,-0.283691,0.95166,83.4375,-37.1875,176.688,0,0
5,8,3,0.0908203,-0.94043,0.177246,-3.9375,160.938,-47.625,0,7,9,0,-0.199707,1.01465,68.6875,-26.4375,200.813,0,0
5,8,2,0.00439453,-0.941895,0.116211,-30.625,167.125,-34.375,0,7,10,0,-0.168945,1.0835,100.063,-5.5625,209.5,0,0
5,8,2,-0.0424805,-0.970215,0.0712891,-31.0625,162.625,-18.25,0,8,10,0,0.0302734,1.08203,93.125,20.75,189.313,0,0
5,9,2,-0.146973,-0.91748,0.0683594,-33,134.375,-8.375,0,8,11,0,0.0605469,1.02295,66.1875,25.3125,145.938,0,0
5,9,1,-0.221191,-0.993164,0.097168,-39.8125,93.125,-10.125,0,8,11,0,0.15918,0.912109,40.75,5.1875,86.375,0,0
5,9,1,-0.249023,-0.975586,0.0957031,-30.5,80,-14.3125,0,8,11,0,0.0986328,0.930664,24.75,-19.375,49.75,0,0
5,9,1,-0.268555,-1.04199,0.166016,-25.8125,13.5625,-31.125,0,8,11,0,0.078125,1.01855,13,-41.75,1,0,0
5,9,1,-0.206055,-1.07373,0.119141,-18.875,-16.9375,-25.875,0,8,11,0,0.0332031,1.08008,12.6875,-31.1875,-35.8125,0,0
5,9,1,-0.0898438,-1.00684,0.0834961,-12.1875,-58.1875,-8,0,8,11,0,0.0078125,1.07715,20.8125,-18.1875,-46.5,0,0
4,8,2,-0.0688477,-0.941406,0.0317383,-25.3125,-80.6875,-11.3125,0,8,11,0,0.0268555,1.05078,48.4375,-17.0625,-45.9375,0,0
4,8,2,-0.0400391,-0.929199,-0.0727539,-33.6875,-81.75,-3,0,8,11,0,0.262207,1.01172,70.125,-7.375,-38.6875,0,0
4,8,2,0.0546875,-1.04492,-0.0776367,-50.1875,-104.438,-5,0,8,11,0,0.258789,1.06445,68.6875,-10.8125,-52.5,0,0
4,8,2,0.0942383,-1.02344,-0.114258,-42.9375,-122.938,-9.4375,0,8,10,0,0.308105,1.04346,76.75,-13.6875,-63.0625,0,0
4,8,3,0.129395,-1.10449,-0.0454102,-37.8125,-132.188,-6.375,0,8,10,0,0.381348,1.03564,96.0625,-25.875,-68.3125,0,0
4,8,3,0.21582,-1.02783,-0.124512,-25.0625,-136.125,-18.375,0,8,10,0,0.403809,1.04248,61.1875,-25,-61.875,0,0
4,8,3,0.251953,-1.09521,-0.0766602,-31.9375,-139,-18.125,0,8,10,0,0.333984,1.00049,64.8125,-41.0625,-53.5625,0,0
4,8,4,0.276855,-1.05322,-0.0268555,-13.9375,-139.375,-21.5,0,8,10,0,0.531738,0.921387,40.875,-44.25,-37.375,0,0
4,8,4,0.264648,-0.993652,-0.081543,-11,-115.938,-19.5625,0,7,10,0,0.445313,0.954102,6.3125,-48.6875,-46.5625,0,0
4,8,4,0.329102,-0.992188,-0.0512695,-15.4375,-81.4375,-16.0625,0,7,9,0,0.516602,0.92041,18.625,-25.6875,-39.4375,0,0
3,8,5,0.274414,-0.941895,-0.0400391,-14.5625,-42.3125,-22.1875,0,7,9,0,0.515625,0.862793,7.3125,-12.6875,-35.8125,0,0
3,8,5,0.275879,-1.0083,-0.00146484,-23.125,-17.625,-22.8125,0,7,9,0,0.331055,0.90332,5.4375,-6.4375,-19.5,0,0
3,8,5,0.12207,-1.07764,-0.131348,-8.3125,22.5625,-2.625,0,7,9,0,0.563965,0.87793,15.3125,-16.3125,-12.9375,0,0
3,8,5,0.0507813,-0.969238,-0.224121,2.8125,10.5,-2.875,0,7,9,0,0.559082,0.905273,15.375,-4.6875,7.75,0,0
3,8,5,0.0424805,-0.911133,-0.241211,-0.875,-0.4375,-11.625,0,7,9,0,0.585938,0.875,17.4375,-1.3125,13.125,0,0
3,8,5,0.0463867,-0.91748,-0.241211,-9.125,-7.4375,-17.9375,0,7,9,0,0.617188,0.853027,5.1875,-2.9375,7.8125,0,0
3,8,5,0.0712891,-1.02441,-0.230469,-4.5625,-20.125,-19.125,0,7,9,0,0.665039,0.853027,-1.8125,-5.6875,3.4375,0,0
3,8,5,0.176758,-1.06934,-0.109375,8.125,-20.25,-7.9375,0,7,9,0,0.57666,0.850098,-6.8125,-4.5,-0.375,0,0
3,8,5,0.167969,-0.98291,-0.163086,13.875,-8,3.875,0,7,9,0,0.603027,0.82373,2.8125,-3.9375,1.375,0,0
3,8,5,0.174805,-0.90918,-0.202637,5.3125,-12.9375,-3.5625,0,7,9,0,0.591309,0.817871,-3.5,-4.5625,3.0625,0,0
3,8,5,0.17041,-0.953125,-0.189453,-4.1875,-5,-4.0625,0,7,9,0,0.587891,0.804688,-7.5,-3.375,5.5625,0,0
3,8,5,0.112793,-0.975586,-0.220215,-8.3125,-3,-4,0,7,9,0,0.565918,0.810059,-1.0625,-1.3125,8.3125,0,0
3,8,5,0.101074,-0.989746,-0.202148,-6.3125,-5.5625,-3.875,0,7,9,0,0.556152,0.813965,6.8125,-1.75,12.4375,0,0
3,8,5,0.136719,-0.988281,-0.178711,-4.1875,-8.625,-4.25,0,7,9,0,0.609863,0.838379,14.1875,-0.3125,17.125,0,0
3,8,5,0.147949,-0.986328,-0.18457,-3.0625,-7.875,-4.875,0,7,9,0,0.64209,0.82666,12.5625,0.375,12.5625,0,0
3,8,5,0.149902,-0.973633,-0.19043,-3.4375,-5.4375,-5.0625,0,7,9,0,0.643555,0.803223,2.75,-0.9375,6.4375,0,0
3,8,5,0.14502,-0.956055,-0.208496,-5.75,-0.75,-3.75,0,7,9,0,0.61377,0.780273,2.4375,-4.0625,2.6875,0,0
3,7,5,0.172363,-0.960449,-0.225098,-4.875,0.8125,-3.625,0,7,9,0,0.675781,0.753906,8.5625,-7,-4.375,0,0
3,7,5,0.193359,-0.95166,-0.239258,-6.8125,4.25,-3.9375,0,7,9,0,0.66748,0.763184,1,-15.8125,-17.5625,0,0
3,7,5,0.195313,-0.944824,-0.236816,2.5625,11.625,-0.8125,0,7,9,0,0.668457,0.76123,-7.25,-22.25,-24.1875,0,0
3,7,5,0.17627,-0.979004,-0.256836,10.25,9.375,-1.6875,0,7,9,0,0.63623,0.76709,-6.375,-21.9375,-26.9375,0,0
3,7,5,0.157227,-0.810547,-0.246582,-0.75,10.625,5.5625,0,7,9,0,0.582031,0.76123,-5.4375,-13.375,-12.3125,0,0
3,7,5,0.129395,-1.04346,-0.174316,-38.4375,10,-13,0,7,9,0,0.570313,0.800293,13.5,-17.25,6.3125,0,0
3,7,5,0.160645,-1.00732,-0.162598,-7.6875,-0.3125,-8.75,0,7,9,0,0.59668,0.820313,25.8125,-26.9375,8.125,0,0
3,7,5,0.163574,-0.988281,-0.24707,3.6875,-2.6875,-10.3125,0,7,9,0,0.682617,0.776367,5.125,-21.8125,-1.5,0,0
3,7,5,0.212891,-0.905273,-0.322266,11.4375,-2.0625,-4.5625,0,7,9,0,0.708496,0.746094,-0.4375,-13.375,-4.875,0,0
3,7,5,0.166504,-0.807617,-0.321777,-19.625,11.375,2.9375,0,7,9,0,0.655273,0.682129,-0.875,3.6875,2.75,0,0
3,7,5,0.166016,-0.992188,-0.250488,-35.5,11,-3.875,0,7,9,0,0.641602,0.743164,25.75,-1.25,16.25,0,0
3,7,5,0.169434,-1.0498,-0.177246,-7.25,3.625,-0.75,0,7,9,0,0.676758,0.766602,18.125,-2.25,9.75,0,0
3,7,5,0.19043,-0.968262,-0.274902,9.875,-1.875,-3.875,0,7,9,0,0.722168,0.763672,4.25,1.25,1.0625,0,0
3,7,5,0.20752,-0.852051,-0.328613,15.3125,2,3.1875,0,7,9,0,0.695313,0.683594,-16.625,9.4375,-5.1875,0,0
3,7,5,0.154785,-0.871094,-0.306641,-20.25,14.3125,2.8125,0,7,9,0,0.647461,0.705566,3.5625,7.4375,7.375,0,0
3,7,5,0.15625,-1.04736,-0.208496,-16.875,8.75,-0.375,0,7,9,0,0.63916,0.719727,14.375,-1,10.8125,0,0
3,7,5,0.156738,-0.98291,-0.276855,8.375,-5.6875,-4.4375,0,7,9,0,0.678223,0.718262,5.625,-5.25,3.5,0,0
3,7,5,0.205078,-0.933105,-0.317871,18.1875,-7.5625,-5.125,0,7,9,0,0.731934,0.685547,-4.625,1.8125,-5.375,0,0
3,7,5,0.196289,-0.833496,-0.356934,10.6875,-0.6875,1.3125,0,7,9,0,0.687012,0.68457,2.9375,10.875,1.25,0,0
3,7,5,0.179688,-0.963867,-0.247559,-15.8125,6.5,-0.6875,0,7,9,0,0.67627,0.709961,12.5,4.6875,6.4375,0,0
3,7,5,0.182129,-1.00195,-0.219727,-9.8125,1.25,-1.4375,0,7,9,0,0.665039,0.727051,7.8125,-6.3125,5.875,0,0
3,7,5,0.205078,-0.940918,-0.271973,-0.125,-3.4375,-5.5625,0,7,9,0,0.766113,0.696289,-1.625,-6.5,-2.125,0,0
3,7,5,0.198242,-0.948242,-0.318848,5.375,3.25,-1.9375,0,7,9,0,0.729492,0.683105,-8.875,1.1875,-4.8125,0,0
3,7,5,0.202148,-0.885742,-0.304199,10.1875,3.8125,1.1875,0,7,9,0,0.68457,0.648438,-4.9375,14.8125,-4.5625,0,0
3,7,5,0.189941,-0.90332,-0.262207,-7.0625,11.375,-0.4375,0,7,9,0,0.707031,0.679688,5.125,16.375,2.6875,0,0
3,7,5,0.191406,-0.995605,-0.283203,-10.4375,7.8125,-1.875,0,7,9,0,0.65332,0.715332,16.5,5.8125,9.4375,0,0
3,7,5,0.199219,-0.97998,-0.271484,0.6875,-1.1875,-2.0625,0,7,9,0,0.730957,0.698242,12.3125,2,8.8125,0,0
3,7,5,0.237793,-0.884766,-0.297363,3.8125,-1.125,-3.5,0,7,9,0,0.724609,0.686523,6.4375,3.125,5.875,0,0
3,7,5,0.195313,-0.953613,-0.326172,-0.4375,1.375,-1.125,0,7,9,0,0.730469,0.687988,10.0625,10.4375,6.9375,0,0
3,7,5,0.175781,-0.897461,-0.277832,1.25,-6.125,-4.75,0,7,9,0,0.719727,0.686035,2.75,8.25,7.5,0,0
3,7,5,0.226563,-0.941895,-0.261719,0.375,-8.125,-5.0625,0,7,9,0,0.716309,0.678223,1.9375,0.1875,6.125,0,0
3,7,5,0.239746,-0.918457,-0.263184,-5.3125,-1.1875,-1.25,0,7,9,0,0.733887,0.656738,-0.375,-3.9375,3.8125,0,0
3,7,5,0.228516,-0.913574,-0.297852,-6.4375,2.375,-0.1875,0,7,9,0,0.723145,0.651367,-1.125,-6.875,1.625,0,0
3,7,5,0.223145,-0.911621,-0.30127,-3.0625,0.9375,-2.875,0,7,9,0,0.67041,0.679199,-2.1875,-10.3125,0.0625,0,0
3,7,5,0.217285,-0.891602,-0.288086,-7.0625,2.375,-2.6875,0,7,9,0,0.707031,0.667969,-0.625,-13.1875,0.75,0,0
3,7,5,0.218262,-0.938477,-0.319824,-12.4375,4.1875,-7.8125,0,7,9,0,0.700684,0.678711,2.75,-14.9375,1.75,0,0
3,7,5,0.252441,-0.919922,-0.309082,-13.8125,4.625,-7,0,6,9,0,0.708984,0.683594,4.25,-16.5625,1.25,0,0
3,7,5,0.222168,-0.916504,-0.349609,-14.25,8.75,-0.625,0,6,9,0,0.729492,0.678223,-5.3125,-11.875,-2.8125,0,0
3,7,5,0.258789,-0.865234,-0.349609,-17.25,13.375,3.5,0,6,9,0,0.715332,0.674805,-9.6875,-5.125,-1.5625,0,0
3,7,5,0.226074,-0.875488,-0.391113,-18.25,17.1875,11,0,6,9,0,0.750488,0.623047,-6.5625,0.9375,-4.125,0,0
3,7,5,0.183105,-0.867676,-0.35791,-13,9.5,4.25,0,6,9,0,0.708496,0.616211,-13,-1.6875,-8.75,0,0
3,7,4,0.206543,-0.946289,-0.306152,-17,10.875,0,0,6,9,0,0.712891,0.638184,-1.625,-7.9375,-4.5625,0,0
3,7,4,0.203125,-1.01709,-0.324707,-7.9375,10.125,-4.8125,0,6,9,0,0.649414,0.671875,2.5625,-19.1875,-0.6875,0,0
3,7,4,0.209473,-0.904297,-0.284668,8.125,-0.8125,-5.8125,0,6,9,0,0.623535,0.672852,2.5625,-22.5625,5.4375,0,0
3,7,4,0.187988,-0.966797,-0.387207,13,-3.125,-3.9375,0,6,9,0,0.698242,0.66748,5.375,-15.625,7.5625,0,0
3,7,4,0.205078,-0.862793,-0.401367,25.9375,-19.375,-9.5,0,6,9,0,0.762695,0.625,6.375,2.9375,0.875,0,0
3,7,5,0.239746,-0.80957,-0.321777,14.0625,-20.375,-9.125,0,6,9,0,0.689941,0.612793,2.125,18.1875,3.25,0,0
3,7,5,0.227051,-0.925293,-0.314453,-6.5,-12.1875,-9.625,0,6,9,0,0.728516,0.619141,8.4375,23.5625,8.6875,0,0
3,7,5,0.188965,-0.971191,-0.288574,-3.125,-18.125,-16.75,0,6,9,0,0.693848,0.660645,13.1875,9.8125,13.3125,0,0
3,7,5,0.242188,-0.910645,-0.275391,9.6875,-24.4375,-19.25,0,6,9,0,0.703613,0.67041,10,2.625,11.25,0,0
3,7,5,0.279297,-0.887207,-0.305176,15.8125,-20.9375,-13.4375,0,6,9,0,0.763672,0.65625,-4.125,7.875,5.3125,0,0
3,7,5,0.300293,-0.848633,-0.382813,13.875,-11.5,-4.3125,0,6,9,0,0.705566,0.61084,-14.8125,25.875,3,0,0
3,7,5,0.256348,-0.853027,-0.37207,-4.5625,-13.0625,-7.25,0,6,9,0,0.689453,0.631348,4.75,25.5,12.6875,0,0
3,7,5,0.297852,-0.884277,-0.257813,-23.6875,-5.625,-7.4375,0,6,9,0,0.685059,0.681152,19,17.25,20.8125,0,0
3,7,5,0.271973,-0.79248,-0.349121,-77.8125,1.8125,-1.125,0,6,9,0,0.771973,0.62793,5.1875,6.375,12.4375,0,0
3,7,5,0.222656,-0.865723,-0.547363,-81.25,6.625,-6.3125,0,6,9,0,0.78418,0.62207,-3.375,-0.1875,3.8125,0,0
3,7,5,0.258789,-0.864258,-0.494629,-19.625,-5.625,-6.75,0,6,9,0,0.74707,0.625488,-5.875,-6.9375,1.3125,0,0
3,7,5,0.264648,-0.876953,-0.444336,15.4375,-9.5,-4.6875,0,6,9,0,0.623047,0.689941,-1.9375,-5.25,6.5,0,0
3,7,5,0.188965,-0.918457,-0.464355,31.1875,-14.5625,-2.25,0,6,9,0,0.768555,0.652832,-38.8125,-15.625,15,0,0
3,7,5,0.21875,-0.787598,-0.420898,43.25,-25.625,-4.3125,0,6,9,0,0.600098,0.686035,-90.9375,-25.75,11,0,0
3,7,5,0.146973,-0.947754,-0.451172,15.0625,-18.9375,-1.875,0,6,9,0,0.439941,0.733887,-82.25,-58.1875,2.1875,0,0
3,7,5,0.21875,-0.775879,-0.378418,11.75,-15.25,-1.5,0,6,9,0,0.649902,0.750977,-21.75,-45.4375,-13.9375,0,0
3,7,5,0.285645,-0.844238,-0.340332,-12.5625,6.125,0.875,0,6,9,0,0.561035,0.754883,-53.25,-38.6875,-11.5,0,0
3,7,5,0.288086,-0.807617,-0.34082,-17.5,18.0625,0.6875,0,5,9,0,0.5,0.806641,-37.9375,-22,-20.125,0,0
3,7,5,0.336426,-0.892578,-0.430176,-41.875,25.3125,-2.625,0,5,9,0,0.303223,0.772461,-32.25,-10.5625,-2.6875,0,0
3,7,5,0.303711,-0.818848,-0.435547,-22.4375,27.1875,-5.375,0,5,9,0,0.363281,0.813965,-7.75,-3.75,6.625,0,0
3,7,5,0.280273,-0.80957,-0.450684,-26.0625,17.9375,-5.125,0,5,9,0,0.448242,0.768066,-2.4375,1.5625,10.875,0,0
3,7,5,0.28418,-0.748535,-0.513184,-35.625,18.0625,-6.8125,0,5,9,0,0.391113,0.816895,33.8125,14,13.125,0,0
2,7,5,0.297363,-0.763672,-0.595703,-25.6875,5.6875,5.1875,0,5,9,0,0.469238,0.764648,96.375,39.5625,22.375,0,0
2,7,5,0.25293,-0.670898,-0.562012,-9.5,-8,-7.9375,0,6,9,0,0.608398,0.703125,68.8125,47.125,16.1875,0,0
2,7,5,0.211426,-0.706543,-0.544434,-22.4375,-6.9375,-3.875,0,6,9,0,0.668457,0.583984,9.9375,30.625,-1.5,0,0
2,7,5,0.164063,-0.894043,-0.532715,29.1875,-16.0625,5.625,0,6,9,0,0.458008,0.640625,28.3125,-8.1875,4.3125,0,0
2,7,5,0.319336,-0.806152,-0.367676,21.6875,-22.125,-24.625,0,6,9,0,0.561523,0.635254,67.0625,-18.4375,8.875,0,0
2,7,5,0.367676,-0.878906,-0.463379,38.375,-19.5625,-30.9375,0,6,9,0,0.61084,0.65332,60.9375,-9.25,16.5,0,0
2,7,5,0.341309,-0.856934,-0.522461,35.25,-32.375,-29.625,0,5,9,0,0.754395,0.667969,35.4375,13.5,11.8125,0,0
3,7,5,0.314941,-0.72998,-0.501465,54.4375,-31.25,-22.5625,0,6,9,0,0.760742,0.645508,8.875,29.625,3.375,0,0
3,7,5,0.280273,-0.682129,-0.444824,1.625,-12.25,-21.5625,0,6,10,0,0.677734,0.669922,32,40.875,1.5,0,0
3,6,6,0.333984,-0.870117,-0.44043,-10.75,0.9375,-26.5,0,6,10,0,0.77832,0.666016,6.5,27.625,2.5,0,0
3,6,6,0.36084,-0.794922,-0.44043,-3.9375,3.125,-22.875,0,6,10,0,0.703125,0.655273,-2.5625,11,-18.1875,0,0
3,6,5,0.461426,-1.03613,-0.400879,8.8125,21.875,12.875,0,6,10,0,0.706543,0.654297,-29.4375,-5.4375,-36.875,0,0
3,6,5,0.417969,-0.754883,-0.396973,26.8125,29.6875,30.75,0,6,9,0,0.723145,0.658691,-34.75,3.5,-34.75,0,0
3,6,5,0.380371,-0.717773,-0.429199,9.375,37.3125,29,0,6,9,0,0.713867,0.695313,-19.875,1.0625,-30.125,0,0
3,6,5,0.396484,-0.779785,-0.37207,-15.8125,34.5625,14.5,0,7,9,0,0.697754,0.745605,-38.75,-7.9375,-35.875,0,0
3,6,5,0.414551,-0.895996,-0.362305,-19.4375,42.9375,16.375,0,7,9,0,0.711426,0.749023,-24.375,-11.5,-53.5,0,0
3,6,5,0.355957,-0.870117,-0.349609,-17.25,44.375,20.5625,0,7,9,0,0.777344,0.694336,-38.5,-9.625,-60.625,0,0
3,6,5,0.29541,-0.808105,-0.40332,-17.875,37.625,21,0,7,9,0,0.677246,0.766113,-15.3125,3.125,-59.6875,0,0
3,6,5,0.305664,-0.850586,-0.336426,-36.3125,30.8125,14.4375,0,7,9,0,0.691406,0.779297,-33.4375,9.3125,-52,0,0
3,6,4,0.268555,-0.978027,-0.361816,-15.0625,30.5,33.5,0,8,9,0,0.635742,0.810547,-11.125,9.125,-54.9375,0,0
3,7,4,0.265625,-0.895508,-0.350586,13.5,19.25,34.9375,0,8,9,0,0.645508,0.871582,-28,7.875,-51.1875,0,0
3,7,4,0.242676,-0.777832,-0.414063,5.5625,9.0625,24.625,0,8,9,0,0.651855,0.771973,-30.3125,16.75,-42.5625,0,0
3,7,4,0.248047,-0.858887,-0.368652,-9.1875,-0.375,12.0625,0,8,9,0,0.627441,0.793457,-34.8125,18.9375,-25.75,0,0
3,7,4,0.251953,-0.887695,-0.372559,-10.4375,-1.3125,16.5,0,8,8,0,0.645508,0.800293,-20.0625,24.4375,-16.25,0,0
3,7,4,0.255371,-0.846191,-0.359375,7.4375,-1.25,21.875,0,8,9,0,0.562988,0.886719,-34.5625,29.3125,-9.5,0,0
3,7,4,0.249512,-0.841309,-0.308105,4.3125,-4.75,10.3125,0,9,9,0,0.640625,0.855957,-7.5625,34.4375,-19.1875,0,0
3,7,4,0.222656,-0.902344,-0.36084,-30,-8.4375,1.625,0,9,9,0,0.597656,0.799805,-5.5,21.75,-16.875,0,0
3,7,4,0.216797,-0.962891,-0.385742,-21.625,-12.375,2.5,0,9,9,0,0.546875,0.827148,16,6.875,-12.8125,0,0
3,7,4,0.229004,-0.883301,-0.34375,-2.125,-9.25,1.75,0,9,8,0,0.616699,0.817871,11.375,0.9375,-9.8125,0,0
3,7,4,0.275391,-0.841797,-0.338867,-7.875,9,-1.875,0,9,8,0,0.576172,0.807129,12.75,-1.375,-5.0625,0,0
3,7,4,0.268066,-0.778809,-0.493652,-29.5,3.875,-15.625,0,9,8,0,0.657227,0.774902,41.5,-6.375,-7.5,0,0
3,7,4,0.288086,-0.814941,-0.468262,-19,4.6875,-9.3125,0,9,8,0,0.614746,0.739258,29.3125,-8.1875,-0.3125,0,0
2,7,4,0.244629,-0.79834,-0.443359,-41.6875,12.6875,-15.5,0,9,8,0,0.682129,0.808105,63.4375,-18,11.9375,0,0
2,7,4,0.268555,-0.853516,-0.557617,-26.8125,1.0625,-26.625,0,9,8,0,0.707031,0.825684,39.625,-20.0625,11.875,0,0
2,7,4,0.27832,-0.873535,-0.541504,-15.5,-11.125,-22.6875,0,9,8,0,0.770508,0.811035,18.375,-23.8125,-2.75,0,0
2,7,4,0.313477,-0.862305,-0.506836,-10.1875,-13.75,-11.1875,0,9,8,0,0.790039,0.755859,5.125,-22.625,-9.0625,0,0
2,7,4,0.318848,-0.765137,-0.507324,0.8125,-10.0625,5.1875,0,9,8,0,0.692383,0.716309,-4.875,-12.75,-3.875,0,0
2,7,4,0.273438,-0.794922,-0.535156,-5.9375,4.125,8.8125,0,9,8,0,0.688477,0.717773,2.375,-4.0625,7.375,0,0
2,7,4,0.280762,-0.766602,-0.526367,9.1875,0.5625,7.0625,0,9,8,0,0.648438,0.739258,5.1875,-7.4375,17.3125,0,0
2,7,4,0.256348,-0.771973,-0.505859,22.25,-0.125,4.9375,0,8,8,0,0.728516,0.79248,14.75,-6.0625,14.125,0,0
2,7,4,0.249512,-0.659668,-0.562012,19.0625,-2.8125,-0.5625,0,8,8,0,0.741699,0.710449,-13.375,12.375,10.125,0,0
2,7,4,0.307129,-0.655273,-0.57373,-18.1875,5.8125,-10.5,0,8,8,0,0.696289,0.69873,-0.8125,13.3125,24.3125,0,0
2,7,4,0.330566,-0.928223,-0.466309,-1.875,16.125,-8.8125,0,8,9,0,0.729004,0.795898,13.0625,15.0625,39.625,0,0
2,7,4,0.312012,-0.860352,-0.396973,45.875,30.875,1.375,0,8,9,0,0.65332,0.805176,-43.875,19.1875,57.3125,0,0
3,7,4,0.333008,-0.854004,-0.42334,36.4375,29,-2.9375,0,8,9,0,0.5625,0.741699,-51.75,18.4375,71.875,0,0
3,6,4,0.331055,-0.736816,-0.394043,48,40.125,-9.3125,0,8,9,0,0.478516,0.714355,-52.25,-5.9375,95.6875,0,0
3,6,4,0.271484,-0.714355,-0.282715,22.75,73.125,-37.625,0,7,9,0,0.445313,0.663574,-39.5625,-47.6875,136.813,0,0
3,6,4,0.301758,-0.726074,-0.214844,22.0625,98.625,-61.75,0,6,10,0,0.407227,0.643066,-42.125,-110.813,169.188,0,0
3,5,4,0.638672,-0.772461,-0.272461,35,116.938,-116.5,0,5,10,0,0.397949,0.601563,-61.3125,-165.438,163.75,0,0
3,4,3,0.905762,-0.682129,-0.173828,34.875,111.563,-130.375,0,4,10,0,0.142578,0.546387,-109.188,-181.125,170.938,0,0
4,3,3,1.05615,-0.453125,-0.0302734,-20.875,121.063,-138.25,0,3,11,0,-0.382813,0.543457,-52.0625,-181.688,190.063,0,0
4,3,2,1.08887,-0.438477,-0.0273438,-76.375,110.438,-127.125,0,2,12,0,-0.161621,0.413574,206.563,-84.125,101.313,0,0
4,2,2,1.01563,-0.513672,-0.0385742,-86,99.75,-93.25,0,2,12,0,0.0620117,0.45166,179.875,-35.25,83.1875,0,0
5,2,1,0.950684,-0.520996,-0.0834961,-56.375,84.4375,-62.5,0,2,13,0,0.216797,0.540527,96.4375,-3.75,51.875,0,0
5,2,1,0.900879,-0.355469,-0.0390625,-47.3125,59.1875,-34,0,2,13,0,0.217285,0.522461,56.5,9.3125,31.875,0,0
5,2,0,0.920898,-0.467773,-0.0258789,-83,36.875,-11.4375,0,2,13,0,0.189453,0.552734,32.5,5.25,16.3125,0,0
5,2,0,0.808105,-0.476074,-0.00830078,-71,20.25,11.3125,0,2,13,0,0.145508,0.60498,17,0.6875,9.6875,0,0
5,2,0,0.766602,-0.569336,0.0429688,-49.75,-1.8125,34.5625,0,2,13,0,0.0917969,0.527344,12.5625,16.0625,-4.9375,0,0
5,2,1,0.824219,-0.54248,0.0458984,-18.125,-20.125,42.9375,0,2,13,0,0.0664063,0.512207,-12.5625,24.0625,-35.5,0,0
4,3,1,0.883301,-0.558105,0.0649414,32.4375,-42.9375,41.875,0,3,12,0,0.0449219,0.598633,-32.125,23.25,-49.875,0,0
4,3,1,0.844727,-0.520996,0.0732422,15.1875,-42.0625,51.75,0,3,12,0,-0.00732422,0.585449,-26.625,26.5625,-51.125,0,0
4,3,1,0.814941,-0.620117,-0.0185547,29.5,-61.75,66.375,0,3,12,0,0.0322266,0.578613,-10,36,-49.125,0,0
4,3,2,0.827637,-0.615234,-0.0761719,52.5625,-77.125,69.125,0,3,12,0,0.104492,0.579102,4.3125,43.9375,-57.625,0,0
4,4,2,0.822266,-0.682129,-0.12207,68.5625,-94.875,63.5625,0,3,11,0,0.206055,0.595703,-2.625,39.0625,-68.8125,0,0
4,4,2,0.62207,-0.700195,-0.120605,40.0625,-99.1875,68.0625,0,4,11,0,0.207031,0.658203,8.3125,33.9375,-68.4375,0,0
4,5,3,0.561035,-0.772461,-0.146973,25.375,-97.875,67.25,0,4,11,0,0.373047,0.649902,19.375,36.25,-75.0625,0,0
3,5,3,0.569824,-0.764648,-0.167969,30.875,-89.4375,72.25,0,4,11,0,0.371094,0.682617,-26.3125,40.375,-83.375,0,0
3,6,3,0.615234,-0.791016,-0.180664,15.5,-74.875,65,0,5,11,0,0.366211,0.672363,-28.0625,34.875,-81.125,0,0
3,6,3,0.552734,-0.850098,-0.120117,0,-70.8125,45.375,0,5,10,0,0.40918,0.726563,-24.6875,20.125,-74.875,0,0
3,6,4,0.570801,-0.984375,-0.0961914,25.25,-80.6875,32.75,0,5,10,0,0.470215,0.71582,-33.125,7.4375,-88.5625,0,0
3,6,4,0.568848,-0.882324,-0.129395,53.75,-77.6875,34.0625,0,5,10,0,0.42334,0.765625,-62,10.375,-91,0,0
3,7,4,0.46875,-0.838379,-0.161621,21.1875,-60.75,34.375,0,6,10,0,0.391602,0.734375,-66,8.8125,-86.75,0,0
3,7,4,0.36377,-0.777832,-0.180664,12.875,-43.8125,18.0625,0,6,9,0,0.291992,0.78418,-53.8125,2.75,-72.5625,0,0
3,7,4,0.311035,-0.830566,-0.162109,-9.8125,-32.4375,4.8125,0,6,9,0,0.337891,0.78125,-26.4375,-8.125,-62.375,0,0
3,7,4,0.321777,-0.885254,-0.161621,-5.0625,-22.625,-0.5625,0,6,9,0,0.280273,0.81543,-11.625,-9.6875,-40.75,0,0
3,7,4,0.349121,-0.906738,-0.181641,-7.8125,-1.4375,0.1875,0,6,9,0,0.366699,0.848633,15.0625,1.8125,-6.875,0,0
3,7,4,0.268555,-0.89502,-0.265625,-6.5625,6.1875,2.875,0,6,9,0,0.41748,0.850586,13.5,7.1875,1.0625,0,0
3,7,4,0.206543,-0.883301,-0.29248,-18.8125,-2,-3.0625,0,6,9,0,0.474609,0.840332,25.25,2.6875,-2.625,0,0
3,7,4,0.158691,-0.976074,-0.307617,-22.1875,-20.875,-18.375,0,6,9,0,0.563477,0.854492,28.625,-12.3125,-13.8125,0,0
3,7,4,0.199707,-1.01172,-0.250977,0.25,-49.5,-22.8125,0,6,9,0,0.564941,0.865234,-7.1875,-19,-39.8125,0,0
3,7,4,0.332031,-1.021,-0.0844727,35.3125,-36.5,-11.6875,0,6,9,0,0.391113,0.878418,-18.875,-6.4375,-32.0625,0,0
3,7,4,0.36084,-0.907227,-0.159668,10.3125,-5.0625,2.5625,0,6,9,0,0.419922,0.862305,-17,11.4375,-5.75,0,0
3,7,4,0.25,-0.924316,-0.275879,-2.4375,3.1875,2.9375,0,6,9,0,0.48877,0.841797,-13.1875,7.3125,5.5625,0,0
3,7,4,0.244141,-0.874512,-0.264648,6.6875,-11.5,-1.8125,0,6,9,0,0.459961,0.833496,-8.1875,4.625,3.5625,0,0
3,7,5,0.269043,-0.887207,-0.250488,3.3125,-10.9375,-1.875,0,6,9,0,0.476074,0.82373,9.0625,5.5625,6.3125,0,0
3,7,5,0.314941,-0.876465,-0.212402,-13.1875,2.6875,-3.8125,0,6,9,0,0.435059,0.808105,15.3125,4.8125,20.125,0,0
3,7,5,0.345215,-0.84082,-0.213379,-23.0625,8,-7.4375,0,6,9,0,0.396484,0.794922,24.125,0.625,31.4375,0,0
3,7,4,0.365234,-0.853027,-0.196289,-43.5625,22.125,-16.9375,0,6,9,0,0.4375,0.831055,30.375,-9.4375,55.5625,0,0
3,6,4,0.372559,-0.849609,-0.23291,-44.3125,33.5625,-27.9375,0,6,9,0,0.48877,0.766602,20.375,-22.125,58.75,0,0
3,6,4,0.456543,-0.865234,-0.320313,-20.3125,41.875,-33.125,0,6,9,0,0.416992,0.787109,-20.5625,-30.9375,55.625,0,0
3,6,4,0.50293,-0.766602,-0.357422,-18.75,55.3125,-23.3125,0,5,9,0,0.413086,0.694824,7.3125,-29.625,60.1875,0,0
3,6,4,0.479492,-0.812988,-0.315918,-41.0625,67.3125,-32.9375,0,5,10,0,0.38623,0.710449,11.875,-41.25,78.8125,0,0
3,5,4,0.476563,-0.814941,-0.236328,-47.8125,76.6875,-42.4375,0,4,10,0,0.288086,0.667969,0.8125,-62.3125,102.188,0,0
3,5,4,0.550293,-0.802734,-0.238281,-24.375,90.9375,-54.3125,0,4,10,0,0.199219,0.643066,-21.6875,-75,108.875,0,0
3,4,3,0.724609,-0.634277,-0.267578,-14.375,93.75,-49.5,0,3,11,0,0.0888672,0.566406,-14.375,-86.4375,113.375,0,0
3,4,3,0.816895,-0.653809,-0.266602,-35.8125,100.125,-55.625,0,3,11,0,0.0825195,0.532227,42,-80.875,101.063,0,0
3,3,3,0.783691,-0.689941,-0.152832,-52.3125,107.125,-63.1875,0,2,11,0,0.0478516,0.537598,68.75,-67.625,92.625,0,0
4,3,2,0.791016,-0.634277,-0.0795898,-36.875,102.25,-56.6875,0,2,12,0,0.125,0.454102,65.125,-34.5625,63.5,0,0
4,3,2,0.916016,-0.552734,-0.0913086,-31.75,92.4375,-51.125,0,2,12,0,0.116699,0.472656,36.875,-18.625,40.75,0,0
4,2,2,0.92041,-0.506836,-0.0859375,-39.75,84.375,-38.25,0,2,12,0,0.13916,0.47998,34.0625,2.5,17.0625,0,0
4,2,1,0.872559,-0.523438,-0.0478516,-38.75,65.3125,-28.875,0,2,12,0,0.136719,0.516602,30.5625,7.9375,4.0625,0,0
4,2,1,0.84082,-0.503906,-0.0214844,-38.1875,48.8125,-10.1875,0,2,12,0,0.115234,0.509766,19.5625,11.1875,-4,0,0
5,2,1,0.821777,-0.496582,-0.0112305,-34.25,34.4375,1.375,0,2,12,0,0.10791,0.496094,15.625,14.0625,-11.625,0,0
4,2,1,0.84668,-0.51123,0.0244141,-26.75,14.3125,20.0625,0,2,12,0,0.0766602,0.519043,-0.6875,17.375,-23.4375,0,0
4,3,1,0.858398,-0.539063,0.0371094,-14.0625,-4.375,31,0,2,12,0,0.0600586,0.508789,-11.8125,20.25,-29.0625,0,0
4,3,1,0.847656,-0.559082,0.0488281,-11.0625,-11.25,36.375,0,3,12,0,0.0302734,0.534668,-17.9375,20.375,-32.875,0,0
4,3,1,0.816895,-0.607422,0.0537109,-9.0625,-23.5625,48.8125,0,3,11,0,0.0390625,0.535156,-16.3125,20.125,-26.25,0,0
4,3,1,0.800781,-0.647949,0.034668,5.5,-33.875,64.4375,0,3,11,0,0.0234375,0.526367,-18.8125,21.4375,-23.4375,0,0
4,4,1,0.775879,-0.691406,0.0107422,3.0625,-38.125,73.5,0,3,11,0,0.0478516,0.574219,-22.5,28.9375,-18.375,0,0
4,4,1,0.679688,-0.739746,0.00732422,4.5,-40.0625,78.4375,0,3,11,0,0.0317383,0.602539,1.375,37.25,-10.875,0,0
4,5,1,0.584961,-0.790527,-0.0351563,3.375,-44.3125,69.8125,0,3,11,0,0.151855,0.592773,7.8125,41.4375,-13.25,0,0
4,5,2,0.548828,-0.773926,-0.130859,11.75,-54.375,63.5625,0,4,11,0,0.13916,0.614746,-15.25,49.9375,-15,0,0
4,5,2,0.49707,-0.799316,-0.211914,9.375,-57.75,59.5,0,4,11,0,0.116211,0.63916,3.625,54.5,-9.8125,0,0
4,6,2,0.508301,-0.77002,-0.212891,4.625,-68.1875,49.625,0,4,11,0,0.148926,0.673828,30.5625,49.75,-3.9375,0,0
3,6,2,0.477539,-0.77002,-0.218262,-5.5,-68.0625,28,0,4,11,0,0.135254,0.733398,17.8125,43.25,-4.0625,0,0
3,6,2,0.544922,-0.797363,-0.286133,-5.25,-66.5625,9.125,0,5,11,0,0.124023,0.772461,8.0625,36.8125,-10.4375,0,0
3,6,2,0.505371,-0.769531,-0.302734,-4.0625,-59.0625,-9.125,0,5,11,0,0.0683594,0.818848,-11.625,28.4375,-14.375,0,0
3,6,3,0.553223,-0.758789,-0.35791,1.5,-51.1875,-11.8125,0,5,11,0,0.0415039,0.893066,-17,17,-17.5625,0,0
3,6,3,0.570313,-0.768066,-0.333496,2,-46.5,0.6875,0,5,11,0,-0.0566406,0.984863,-36.9375,11.8125,-12.25,0,0
3,6,3,0.485352,-0.767578,-0.283691,-12.5,-36.5625,8.6875,0,5,11,0,-0.0708008,1.02637,-46,15.375,-9.125,0,0
3,6,3,0.430664,-0.786621,-0.279297,-8.6875,-30.3125,-1.8125,0,5,11,0,-0.125977,1.04834,-40.6875,23.375,-0.8125,0,0
3,6,3,0.401855,-0.851074,-0.33252,-16.3125,-7.125,-9.125,0,5,11,0,-0.113281,1.05322,-48.1875,29.4375,6.4375,0,0
3,6,3,0.413574,-0.873047,-0.337891,-16.9375,3.875,-18.25,0,6,11,0,-0.135742,1.06934,-61.25,33.0625,18.25,0,0
3,6,3,0.431641,-0.928223,-0.245605,-12.75,8.5625,-20.125,0,6,11,0,-0.123535,0.992676,-59,42.875,30.1875,0,0
3,6,3,0.470215,-0.94873,-0.226074,-2.625,10,-17.5,0,6,12,0,-0.0205078,0.979004,-58.8125,37.625,35.625,0,0
3,6,3,0.462891,-0.926758,-0.195313,-5.875,15.25,-12.0625,0,6,12,0,-0.0546875,0.967773,-57.9375,34.375,41.125,0,0
3,6,3,0.467285,-0.915527,-0.189941,-5.3125,19.625,-12,0,6,12,0,-0.115234,0.942871,-46,31.9375,44.5,0,0
3,6,3,0.468262,-0.958984,-0.154297,0.125,21.375,-17.3125,0,7,12,0,-0.11084,0.977051,-33.875,26.5625,45.6875,0,0
3,5,3,0.491699,-0.941406,-0.143555,13.375,19.6875,-18.1875,0,7,12,0,-0.144531,0.967285,-37.25,24.8125,48.625,0,0
3,5,3,0.477051,-0.895508,-0.160645,19.25,16.5625,-11.9375,0,7,12,0,-0.204102,0.995117,-29.5,21.5625,46.25,0,0
3,5,3,0.473145,-0.886719,-0.169434,24.9375,17.8125,-11,0,7,12,0,-0.252441,0.976563,-6.3125,27,52.125,0,0
3,5,3,0.493652,-0.849121,-0.148926,22.25,18.5,-10.0625,0,7,12,0,-0.269043,0.974609,5.4375,23.75,54.1875,0,0
3,5,3,0.500977,-0.830566,-0.133789,19.8125,14.9375,-6.125,0,8,12,0,-0.245117,0.970703,15.375,25.125,56.375,0,0
4,5,3,0.499023,-0.791992,-0.118164,15.1875,13,-6.0625,0,8,12,0,-0.305664,0.996094,5.375,26.375,57.3125,0,0
4,5,2,0.496094,-0.787598,-0.112305,12.625,12.4375,-5.4375,0,8,13,0,-0.365723,1.03906,14,30.1875,55.9375,0,0
4,5,2,0.522461,-0.774902,-0.126465,8.75,12.4375,-4.6875,0,8,13,0,-0.345215,1.01172,14.5,34.3125,57.25,0,0
4,5,2,0.54248,-0.782715,-0.127441,3.0625,12.6875,-3.875,0,9,13,0,-0.330078,0.99707,24.4375,33.625,51.875,0,0
4,5,2,0.553711,-0.777344,-0.130859,-4.125,11.4375,-1.0625,0,9,13,0,-0.234375,0.944824,24.1875,31.6875,44.25,0,0
4,5,2,0.541504,-0.799805,-0.11084,-9.75,8.5,0.25,0,9,13,0,-0.199219,0.921875,23.6875,26.75,33.5625,0,0
4,5,2,0.539063,-0.820313,-0.0898438,-9.4375,5.125,-0.5,0,9,13,0,-0.172363,0.946289,20.8125,21.5,25.625,0,0
