timestamp,emg1,emg2,emg3,emg4,emg5,emg6,emg7,emg8,1.52308E+15,-1,-2,-1,-9,-3,-7,-3,1,-251.52308E+15,0,-1,-3,-19,23,3,-1,1,31.52308E+15,-2,-2,4,22,-3,9,3,2,331.52308E+15,1,1,3,0,-2,11,26,8,481.52308E+15,2,1,-6,-26,-5,11,0,2,-211.52308E+15,-3,0,2,14,-8,3,-4,-2,21.52308E+15,-1,1,7,0,13,-17,-10,-5,-121.52308E+15,0,1,-3,-11,-18,-3,-6,0,-401.52308E+15,-1,0,2,12,12,3,1,0,291.52308E+15,-1,-2,0,9,-24,-3,6,0,-151.52308E+15,-1,0,-3,-8,9,3,-1,-3,-41.52308E+15,-2,0,-3,-2,20,-4,-7,-3,-11.52308E+15,-2,-1,3,15,-10,-5,-3,-2,-51.52308E+15,0,-1,0,-1,0,2,-3,-3,-61.52308E+15,0,-2,-6,-15,-6,-1,5,2,-231.52308E+15,-2,-1,-1,5,-1,-2,-6,-4,-121.52308E+15,-1,-3,-3,7,3,7,5,2,171.52308E+15,0,2,-3,-14,-18,3,-1,1,-301.52308E+15,1,1,-2,4,17,-1,5,2,271.52308E+15,-2,-1,3,7,-26,-16,-7,-1,-431.52308E+15,-2,-1,21,25,-18,-13,3,-1,141.52308E+15,0,1,3,-6,24,0,0,-1,211.52308E+15,-1,-2,-2,-9,-12,-3,-1,-3,-331.52308E+15,-2,-3,4,26,-2,-5,-3,-1,141.52308E+15,-1,-2,-7,-7,1,-3,-3,1,-211.52308E+15,-2,0,-7,-11,-2,-4,-4,-1,-311.52308E+15,-1,-2,5,7,-15,-3,-3,0,-121.52308E+15,-2,1,1,13,41,4,4,-1,611.52308E+15,1,0,-5,-16,-5,0,0,1,-241.52308E+15,-2,-2,-1,6,-7,-5,-2,-1,-141.52308E+15,-2,0,7,18,-10,6,-3,-1,151.52308E+15,1,0,-5,-28,-22,1,10,1,-421.52308E+15,0,0,-4,3,-6,-6,-2,-4,-191.52308E+15,0,-2,0,-5,-51,21,0,0,-371.52308E+15,3,0,4,4,61,-25,-5,-2,401.52308E+15,1,0,-6,-8,-1,4,0,-1,-111.52308E+15,-3,-1,-2,1,-8,-2,-4,-3,-221.52308E+15,-2,-1,-2,2,-12,-4,-1,0,-201.52308E+15,-2,-1,-9,-18,-23,9,-3,-3,-501.52308E+15,0,1,12,0,0,-6,-7,-1,-11.52308E+15,-1,-1,-22,5,21,6,-1,1,81.52308E+15,4,-2,13,1,0,6,19,6,471.52308E+15,-2,1,9,3,14,0,-5,-4,161.52308E+15,-3,-3,-9,1,-3,-6,2,-2,-231.52308E+15,-1,2,7,-6,-8,-7,-5,-2,-201.52308E+15,-3,-3,-9,3,2,-4,-7,-4,-251.52308E+15,1,-2,-6,10,26,7,9,0,451.52308E+15,2,2,4,-9,-14,-8,-2,2,-231.52308E+15,-2,1,4,-12,-23,27,1,0,-41.52308E+15,-1,0,4,5,11,-33,-7,-2,-231.52308E+15,-1,-3,-3,6,-3,6,0,-1,11.52308E+15,-1,-3,-15,-1,-3,4,-5,-5,-291.52308E+15,-3,-7,-19,-11,-3,-34,-7,-4,-881.52308E+15,2,5,-8,-5,0,43,8,1,461.52308E+15,5,11,40,-7,4,-10,5,6,541.52308E+15,2,2,25,28,-15,-10,-3,0,291.52308E+15,-5,-9,-3,0,74,-6,1,-3,491.52308E+15,-1,-2,-15,11,4,-26,-10,-1,-401.52308E+15,-4,-5,-34,-14,-32,14,3,-3,-751.52308E+15,0,6,-2,-11,7,3,-2,0,11.52308E+15,5,8,56,-1,-16,14,0,0,661.52308E+15,-2,-4,7,-10,0,-6,-5,-3,-231.52308E+15,-3,-8,-24,11,12,-1,0,0,-131.52308E+15,-1,-4,-20,-1,-4,6,2,1,-211.52308E+15,1,-3,-3,11,0,7,3,2,181.52308E+15,2,11,61,-13,8,1,0,-1,691.52308E+15,-5,-3,9,-7,1,-2,-3,-3,-131.52308E+15,0,-2,5,4,-18,-14,-1,0,-261.52308E+15,-1,-3,-34,3,6,14,3,2,-101.52308E+15,-4,-7,-13,9,24,-10,-3,-4,-81.52308E+15,-1,4,-29,-11,-37,0,-5,-2,-811.52308E+15,-2,3,23,-16,3,0,-6,-5,01.52308E+15,2,-4,-3,0,11,2,4,6,181.52308E+15,2,-2,-22,2,0,13,5,0,-21.52308E+15,-4,-6,4,-3,-2,-7,-5,-2,-251.52308E+15,-2,-2,9,8,7,3,1,1,251.52308E+15,0,2,-2,-16,-39,-8,-3,-2,-681.52308E+15,2,7,10,-16,-23,-8,-3,0,-311.52308E+15,0,-5,-2,13,55,2,0,-1,621.52308E+15,-2,-7,-20,1,-17,14,3,0,-281.52308E+15,2,-2,-38,-2,-19,-3,4,-1,-591.52308E+15,-21,-11,-8,-4,11,-16,-5,-2,-561.52308E+15,4,-1,-5,-5,-8,-7,1,1,-201.52308E+15,-2,6,13,-5,4,2,-3,-2,131.52308E+15,-3,9,21,3,0,4,0,-6,281.52308E+15,3,0,-17,-3,-42,11,-1,-5,-541.52308E+15,1,-1,-3,8,3,-20,-3,0,-151.52308E+15,-5,-6,25,5,17,2,-2,-1,351.52308E+15,0,-10,-13,2,-9,0,1,1,-281.52308E+15,3,4,5,0,2,0,0,-1,131.52308E+15,-2,0,1,-6,-3,8,3,0,11.52308E+15,1,12,7,-2,-4,-6,-1,1,81.52308E+15,-7,-4,22,5,2,-4,-4,-2,81.52308E+15,-4,-19,-71,-14,9,3,-1,-3,-1001.52308E+15,10,15,41,4,-42,6,7,3,441.52308E+15,2,13,9,4,61,-3,-3,-1,821.52308E+15,2,-3,-35,-9,-33,-15,-5,-1,-991.52308E+15,0,3,40,48,109,10,-2,-3,2051.52308E+15,-8,-16,-44,-21,-50,1,-2,-2,-1421.52308E+15,3,-1,30,18,1,-2,5,1,551.52308E+15,7,25,54,-24,-46,9,9,7,411.52308E+15,-13,-25,-47,-20,8,-11,-16,-12,-1361.52308E+15,10,6,2,6,0,-1,-7,-2,141.52308E+15,-24,-6,-7,-1,-12,18,22,3,-71.52308E+15,-6,-15,-2,-4,20,-9,-3,-11,-301.52308E+15,2,6,-14,23,-13,-2,2,5,91.52308E+15,2,8,14,-4,7,-1,0,-1,251.52308E+15,5,-9,20,-10,-12,-14,-9,0,-291.52308E+15,6,0,-30,-24,12,0,0,3,-331.52308E+15,-3,1,15,-4,-25,22,12,4,221.52308E+15,-14,-15,-59,-8,21,-12,-10,-12,-1091.52308E+15,14,16,8,-12,-5,-10,-5,2,81.52308E+15,-3,2,-33,17,4,-6,0,-1,-201.52308E+15,12,8,33,20,23,-5,17,11,1191.52308E+15,-9,-12,-9,-15,-29,-12,-12,-2,-1001.52308E+15,2,-7,-45,-19,-18,-8,2,-6,-991.52308E+15,1,1,-6,-14,34,27,-5,-5,331.52308E+15,3,12,12,-1,-42,-7,0,-1,-241.52308E+15,-4,3,14,4,3,-7,-2,0,111.52308E+15,-8,-21,-55,-22,5,-15,-10,-6,-1321.52308E+15,4,6,35,60,19,7,-5,2,1281.52308E+15,8,4,3,-24,-32,-25,-10,-1,-771.52308E+15,-20,-4,4,9,30,7,24,0,501.52308E+15,4,-5,1,-16,-35,53,-11,-2,-111.52308E+15,-1,0,1,-2,-10,-5,9,5,-31.52308E+15,-4,-4,-17,6,30,5,10,0,261.52308E+15,7,5,19,-1,-7,-26,-19,-5,-271.52308E+15,-1,-1,-7,7,25,-14,-9,-3,-31.52308E+15,9,-4,21,2,-7,-9,-1,-2,91.52308E+15,-25,-8,-11,-1,-11,19,4,-7,-401.52308E+15,6,2,3,-4,-9,0,1,5,41.52308E+15,4,-2,-8,8,3,-1,3,-4,31.52308E+15,-28,-9,-13,0,9,-7,-9,-9,-661.52308E+15,5,-1,0,4,-17,-12,-7,0,-281.52308E+15,9,10,24,26,10,20,9,5,1131.52308E+15,2,-4,5,-20,-16,-16,-11,-6,-661.52308E+15,-6,-5,-11,-2,9,-63,-14,-4,-961.52308E+15,5,1,0,-8,7,99,13,9,1261.52308E+15,-10,-5,-13,-14,6,-15,-4,-4,-591.52308E+15,1,2,-1,10,-20,-16,-5,4,-251.52308E+15,7,2,-5,-8,-35,-14,-3,3,-531.52308E+15,8,-5,5,-8,-1,-26,-16,-9,-521.52308E+15,-10,-1,13,21,27,27,9,0,861.52308E+15,-10,-2,-9,3,-5,-3,6,-1,-211.52308E+15,23,2,3,-10,3,13,-2,3,351.52308E+15,-20,5,-4,-6,3,-13,-6,-2,-431.52308E+15,9,-4,0,-5,-7,2,-3,-3,-111.52308E+15,8,-6,-9,41,16,-6,6,7,571.52308E+15,50,-8,-24,21,5,32,24,16,1161.52308E+15,-48,2,73,-109,-13,-22,-1,-7,-1251.52308E+15,-19,-26,-3,58,-7,-15,-11,-10,-331.52308E+15,25,-13,16,115,17,13,-1,-12,1601.52308E+15,-107,30,19,35,1,6,-10,-78,-1041.52308E+15,60,-37,-17,5,-12,-16,-2,6,-131.52308E+15,-34,54,4,-77,4,11,15,41,181.52308E+15,41,4,-18,-75,22,5,5,53,371.52308E+15,-20,-49,-20,-14,7,9,7,10,-701.52308E+15,-8,-20,-7,6,2,-10,2,-26,-611.52308E+15,76,78,63,120,-4,-6,-15,-39,2731.52308E+15,-118,-31,-16,41,1,13,3,-56,-1631.52308E+15,31,-11,-30,98,-6,-5,-1,8,841.52308E+15,21,2,-27,12,-3,4,-3,-5,11.52308E+15,-52,-27,43,-97,2,-4,9,27,-991.52308E+15,33,40,-14,-124,5,2,-15,-9,-821.52308E+15,36,-45,-1,-119,-4,2,-1,38,-941.52308E+15,-64,-26,-32,58,-10,-10,0,-28,-1121.52308E+15,2,34,22,51,2,6,-1,15,1311.52308E+15,21,8,0,-83,7,-2,0,4,-451.52308E+15,41,-11,-33,13,-2,5,3,-21,-51.52308E+15,-45,-13,6,-60,-5,-2,2,-4,-1211.52308E+15,51,-7,13,60,7,0,-12,-27,851.52308E+15,-24,-28,-6,38,-7,0,9,8,-101.52308E+15,1,-24,-13,31,-4,1,-8,-45,-611.52308E+15,-79,95,76,-102,4,-34,-4,104,601.52308E+15,92,-35,-98,8,2,-5,-10,-27,-731.52308E+15,-27,26,72,51,-1,24,31,0,1761.52308E+15,-5,-24,-62,9,8,-22,-44,-15,-1551.52308E+15,-44,7,33,70,1,18,20,5,1101.52308E+15,-35,-46,-56,-108,-15,-86,-36,-29,-4111.52308E+15,15,27,-20,-38,-14,52,18,113,1531.52308E+15,-12,9,0,31,7,-23,4,-10,61.52308E+15,23,3,-57,0,21,-34,-15,-62,-1211.52308E+15,-35,-6,32,41,55,-42,-26,-21,-21.52308E+15,73,-13,-9,48,-16,69,57,50,2591.52308E+15,62,26,-31,-103,-69,113,50,-29,191.52308E+15,75,22,-3,84,-26,-64,-42,-23,231.52308E+15,77,22,5,-54,11,99,-17,-10,1331.52308E+15,21,-52,-51,-25,-69,-128,-60,-128,-4921.52308E+15,-128,-1,-27,-76,-27,127,23,-20,-1291.52308E+15,127,71,60,-24,25,-41,48,-7,2591.52308E+15,-80,-25,61,-8,-30,-30,0,-14,-1261.52308E+15,-28,16,41,41,56,-41,-78,-65,-581.52308E+15,-64,-48,-83,30,44,-74,-30,-23,-2481.52308E+15,-57,-102,-95,96,-25,-14,-17,66,-1481.52308E+15,-43,108,84,-58,-100,72,20,-43,401.52308E+15,-63,60,-10,-107,51,-76,6,101,-381.52308E+15,-47,-21,-11,25,32,-128,-86,-32,-2681.52308E+15,14,50,68,-25,15,126,14,5,2671.52308E+15,19,-22,-74,14,18,-117,36,42,-841.52308E+15,-23,-34,-13,59,0,-98,-28,-38,-1751.52308E+15,-21,23,-15,8,-9,-10,8,42,261.52308E+15,-43,-59,-58,44,-97,-69,-50,-64,-3961.52308E+15,-81,-54,8,28,47,86,49,91,1741.52308E+15,45,83,19,-54,-70,51,-5,-35,341.52308E+15,9,52,104,-14,53,-4,6,35,2411.52308E+15,-24,-36,3,6,23,53,1,-39,-131.52308E+15,-3,-34,-62,32,-29,-1,19,13,-651.52308E+15,-96,-99,-69,47,-9,-60,-10,-42,-3381.52308E+15,54,20,47,94,-18,73,3,93,3661.52308E+15,122,127,59,-128,-28,93,37,25,3071.52308E+15,-14,-13,-50,5,94,22,7,-19,321.52308E+15,-33,-39,-44,1,-55,-20,-1,-13,-2041.52308E+15,-3,-41,-12,23,-11,-32,-2,-27,-1051.52308E+15,9,-43,-64,69,-1,-80,-36,-38,-1841.52308E+15,-57,35,44,-74,59,-34,-25,-51,-1031.52308E+15,19,14,-4,-30,-16,127,60,-21,1491.52308E+15,10,11,50,53,13,-43,3,-5,921.52308E+15,-10,-44,-56,-68,-3,-18,-2,37,-1641.52308E+15,-54,-89,-35,119,7,-128,-91,-28,-2991.52308E+15,-63,62,116,-79,-17,100,73,-14,1781.52308E+15,-77,50,20,-124,35,-103,-12,20,-1911.52308E+15,-113,-45,-44,-49,21,-114,-24,-16,-3841.52308E+15,19,5,-54,26,-30,-29,11,38,-141.52308E+15,-57,-47,-4,100,-4,-79,-57,-34,-1821.52308E+15,37,-7,17,-19,51,-58,-59,-18,-561.52308E+15,-44,56,12,70,77,61,93,48,3731.52308E+15,90,45,60,27,17,-88,22,5,1781.52308E+15,-46,-50,-76,-12,63,-76,-11,24,-1841.52308E+15,122,28,-40,-89,-21,-128,-65,-3,-1961.52308E+15,-32,-9,-35,79,-85,30,43,-1,-101.52308E+15,106,-7,31,-85,16,-38,-39,-38,-541.52308E+15,127,32,26,-28,-6,-87,48,40,1521.52308E+15,-97,-4,6,7,-28,-38,9,-1,-1461.52308E+15,-36,-41,-3,16,34,-46,-56,-48,-1801.52308E+15,-14,9,-29,-120,-47,-39,-11,25,-2261.52308E+15,11,-6,15,99,-32,12,-33,-13,531.52308E+15,-67,-57,-56,67,-7,24,41,18,-371.52308E+15,0,6,35,54,60,9,10,19,1931.52308E+15,-55,50,60,19,28,52,26,25,2051.52308E+15,67,31,-24,-27,23,-110,-81,68,-531.52308E+15,86,-6,-1,41,-31,27,18,4,1381.52308E+15,30,-11,-23,-31,-12,-33,-34,36,-781.52308E+15,25,7,-72,-80,1,-24,-8,-2,-1531.52308E+15,120,55,75,-16,54,40,44,6,3781.52308E+15,2,3,12,-6,-43,-65,45,-22,-741.52308E+15,2,-25,-2,-45,-72,-128,-54,-33,-3571.52308E+15,-14,-65,-72,5,-11,-123,-85,-52,-4171.52308E+15,-23,23,-49,37,-28,95,71,45,1711.52308E+15,-19,41,127,-14,5,-69,4,-8,671.52308E+15,95,-26,38,-37,36,-128,-24,30,-161.52308E+15,-66,-5,-35,42,-88,-40,-52,-51,-2951.52308E+15,-62,-94,-119,2,81,-69,-48,-6,-3151.52308E+15,-15,62,96,1,-30,50,2,-15,1511.52308E+15,53,47,-29,-14,-87,-75,-38,-12,-1551.52308E+15,-65,-47,-32,30,68,-67,-2,-4,-1191.52308E+15,-9,-12,0,-15,0,-25,23,-7,-451.52308E+15,9,-47,-93,-14,34,-109,-60,4,-2761.52308E+15,-128,-86,-36,5,127,-102,-58,-57,-3351.52308E+15,127,117,96,7,-82,102,120,29,5161.52308E+15,40,26,57,-14,104,-13,4,-18,1861.52308E+15,-21,-13,12,-2,63,-61,-56,-20,-981.52308E+15,-23,-17,-70,-3,-44,-72,-13,-21,-2631.52308E+15,-56,-69,-65,-4,-48,-128,-63,-4,-4371.52308E+15,-12,37,39,20,-128,56,30,7,491.52308E+15,-44,8,9,-15,33,-9,65,15,621.52308E+15,-6,26,36,-12,-19,-28,-20,10,-131.52308E+15,-22,19,39,7,-69,24,12,15,251.52308E+15,-29,-16,-12,1,34,-37,-34,-16,-1091.52308E+15,12,-11,-21,-1,-1,75,16,-1,681.52308E+15,2,1,3,-7,-19,85,21,3,891.52308E+15,-7,18,31,7,2,76,24,23,1741.52308E+15,-21,-5,14,0,13,-16,-37,-39,-911.52308E+15,29,-4,-23,-8,-20,38,20,25,571.52308E+15,10,20,18,4,70,51,29,19,2211.52308E+15,7,-21,1,4,-40,35,1,-7,-201.52308E+15,-15,-30,-25,1,-46,-33,-12,0,-1601.52308E+15,-5,9,20,-1,43,34,-4,-1,951.52308E+15,10,18,19,1,-37,27,9,-4,431.52308E+15,-24,-34,-37,4,109,-7,-12,-16,-171.52308E+15,-21,-9,-16,0,-43,-45,-25,-8,-1671.52308E+15,-15,6,-5,2,-107,-13,-7,-11,-1501.52308E+15,13,13,23,0,-26,20,2,-5,401.52308E+15,24,-15,3,3,82,43,62,62,2641.52308E+15,-3,23,-2,-3,16,-28,-11,-1,-91.52308E+15,12,9,8,1,-20,-9,-11,0,-101.52308E+15,6,10,34,1,61,33,-26,-13,1061.52308E+15,-9,-8,-8,-3,-2,-19,9,0,-401.52308E+15,-26,-21,-7,-2,-94,-27,-2,-16,-1951.52308E+15,-3,-7,-23,-5,-34,-8,-35,-5,-1201.52308E+15,6,5,-37,-13,39,-15,68,14,671.52308E+15,-2,5,-38,-19,-25,49,-28,-1,-591.52308E+15,-5,-5,-17,-46,55,27,-37,-24,-521.52308E+15,3,-1,-25,6,17,-3,48,25,701.52308E+15,-9,-24,-64,-11,-49,-2,70,4,-851.52308E+15,7,4,-18,-8,-28,-56,-14,14,-991.52308E+15,11,15,28,24,33,43,-5,1,1501.52308E+15,-3,-9,17,10,20,-6,-48,-17,-361.52308E+15,3,4,46,5,31,40,-21,-7,1011.52308E+15,-9,-6,74,34,-19,-21,-6,-17,301.52308E+15,-10,-13,77,42,-27,-43,-8,-2,161.52308E+15,7,6,98,-15,27,22,5,-4,1461.52308E+15,11,13,20,-10,3,-5,-4,9,371.52308E+15,-8,-8,-46,43,-15,22,3,-18,-271.52308E+15,14,-3,-72,-21,4,-18,19,29,-481.52308E+15,-3,1,-108,8,13,3,20,-5,-711.52308E+15,9,10,0,-4,42,32,2,6,971.52308E+15,-1,-10,17,-33,-67,-11,-18,-1,-1241.52308E+15,-18,-9,-1,8,-13,-14,-7,-15,-691.52308E+15,-4,-4,6,64,-24,-21,-12,-4,11.52308E+15,3,14,-1,12,-3,-2,-6,7,241.52308E+15,-5,3,-44,-43,57,-27,7,-9,-611.52308E+15,2,-7,-30,-18,-62,75,16,8,-161.52308E+15,8,0,2,-1,-5,26,7,7,441.52308E+15,3,-3,-5,-30,18,17,-11,-2,-131.52308E+15,-10,0,4,-16,2,5,16,-16,-151.52308E+15,-5,-7,8,15,16,-48,-11,-3,-351.52308E+15,-6,-1,-12,-15,6,-2,-16,-7,-531.52308E+15,3,-2,29,5,-10,16,5,5,511.52308E+15,9,7,15,24,7,-3,4,1,641.52308E+15,1,-3,-26,-24,20,-7,6,9,-241.52308E+15,-2,9,33,-16,13,22,10,-2,671.52308E+15,-13,-15,0,25,-42,-22,-39,-9,-1151.52308E+15,0,-4,-2,16,-1,11,13,-1,321.52308E+15,9,7,14,29,7,-9,3,1,611.52308E+15,-14,-7,-4,-12,11,-10,14,-11,-331.52308E+15,2,2,-1,22,-21,-32,-12,-1,-411.52308E+15,0,-1,-2,4,-2,23,-9,4,171.52308E+15,-3,8,9,-21,24,16,2,-16,191.52308E+15,-1,-11,-16,-14,-16,-10,-5,-20,-931.52308E+15,-8,6,-1,2,0,-4,10,67,721.52308E+15,18,6,11,-9,-1,1,-4,-13,91.52308E+15,2,2,3,-14,10,-21,0,0,-181.52308E+15,-9,-10,-11,-12,-8,4,-2,24,-241.52308E+15,-8,-1,3,21,-21,-9,-8,-13,-361.52308E+15,5,9,50,27,8,6,15,17,1371.52308E+15,4,8,7,0,9,-6,-26,0,-41.52308E+15,9,-6,0,22,-1,11,44,13,921.52308E+15,-3,-2,-6,-8,7,-4,4,-14,-261.52308E+15,-13,-5,-23,-3,-11,-6,-53,-10,-1241.52308E+15,1,0,6,2,-1,-7,43,7,511.52308E+15,-4,-2,1,-9,3,5,-10,-5,-211.52308E+15,34,-1,-1,-1,-12,4,5,-45,-171.52308E+15,-45,-9,-13,-55,-6,2,13,-87,-2001.52308E+15,-5,-3,-2,-5,-1,-3,-24,-29,-721.52308E+15,19,10,-10,-14,8,-8,1,69,751.52308E+15,-11,-8,6,-5,7,-4,-5,-15,-351.52308E+15,2,-2,-16,1,-9,-6,-19,-4,-531.52308E+15,-10,-17,1,17,-4,0,6,-21,-281.52308E+15,0,3,0,-21,0,5,17,-60,-561.52308E+15,6,4,-9,-24,1,-1,-11,54,201.52308E+15,8,2,4,12,11,2,11,25,751.52308E+15,-3,-2,-3,-15,-9,-23,-25,2,-781.52308E+15,-41,-13,-13,14,-10,-1,-9,-27,-1001.52308E+15,19,-12,-13,32,-20,-12,-9,67,521.52308E+15,19,6,-28,-15,20,31,39,123,1951.52308E+15,47,23,41,-29,16,3,7,11,1191.52308E+15,-14,5,-2,-7,9,2,-12,-6,-251.52308E+15,-7,-14,-6,-13,-13,-11,-14,-60,-1381.52308E+15,-20,-8,-15,-4,-13,-10,-4,-44,-1181.52308E+15,-43,-12,-18,12,3,4,8,56,101.52308E+15,48,5,17,-16,-8,-7,-5,1,351.52308E+15,-30,4,-3,-25,4,-7,5,-22,-741.52308E+15,13,-3,-6,-28,14,24,8,7,291.52308E+15,2,-5,-3,28,-7,-6,-6,-19,-161.52308E+15,-7,-3,9,11,-10,-8,-8,1,-151.52308E+15,-12,-4,-14,-20,9,3,10,-2,-301.52308E+15,31,0,27,3,-7,-3,0,-21,301.52308E+15,-38,12,-23,-5,-2,-4,-8,-7,-751.52308E+15,2,-3,-1,-2,3,1,0,8,81.52308E+15,-2,5,-7,-3,2,0,-7,-13,-251.52308E+15,-46,-14,-28,61,-1,1,0,-28,-551.52308E+15,32,-18,28,-56,-5,4,3,-4,-161.52308E+15,52,33,3,-117,10,1,4,63,491.52308E+15,43,-28,14,79,7,0,0,-34,811.52308E+15,-106,-3,-8,-24,-2,-6,-11,0,-1601.52308E+15,53,-6,-43,-2,-3,-7,-3,-32,-431.52308E+15,13,-47,-38,10,-5,-12,-15,39,-551.52308E+15,37,35,49,-29,-10,8,17,10,1171.52308E+15,23,0,26,112,18,-9,-7,-4,1591.52308E+15,-32,-7,-3,-35,-2,5,-1,-2,-771.52308E+15,-15,-6,-22,-68,11,17,30,-11,-641.52308E+15,7,-17,-4,84,-13,-27,-11,5,241.52308E+15,-7,-1,-3,-112,-29,0,1,27,-1241.52308E+15,8,20,10,26,-13,-12,-14,17,421.52308E+15,-13,0,20,94,8,-87,-62,-25,-651.52308E+15,58,19,4,-16,1,109,94,-27,2421.52308E+15,-47,-2,-36,-14,-1,-35,-21,-75,-2311.52308E+15,25,-5,16,-105,0,1,6,-71,-1331.52308E+15,11,19,8,107,-3,-17,19,-33,1111.52308E+15,-88,15,1,-38,12,-56,-50,64,-1401.52308E+15,65,6,26,-49,64,-89,-35,-12,-241.52308E+15,18,-2,-22,30,-36,97,88,23,1961.52308E+15,-8,8,17,19,-18,-89,-5,-57,-1331.52308E+15,-35,-13,-29,-24,-11,-50,-5,-33,-2001.52308E+15,21,1,45,61,-17,-1,11,28,1491.52308E+15,-55,-14,-22,24,30,-128,-66,-4,-2351.52308E+15,3,2,2,-11,-16,127,32,17,1561.52308E+15,8,-1,-19,-25,-34,-43,-10,22,-1021.52308E+15,5,-5,-29,-16,-2,-20,22,8,-371.52308E+15,13,-1,7,24,11,-23,-17,-4,101.52308E+15,-17,-1,13,-10,-4,-3,-30,4,-481.52308E+15,-3,-6,-20,-47,22,-1,-3,-5,-631.52308E+15,16,-1,-20,-13,-18,36,-6,-7,-131.52308E+15,-12,5,2,15,8,33,31,13,951.52308E+15,-10,-7,-13,-6,13,-7,-36,-50,-1161.52308E+15,-8,-1,37,4,0,6,-55,24,71.52308E+15,22,16,7,-7,-5,32,100,58,2231.52308E+15,4,0,-10,0,10,6,-9,27,281.52308E+15,-2,-3,-35,-39,2,-22,-27,-12,-1381.52308E+15,-10,0,-10,22,13,27,-35,-23,-161.52308E+15,47,0,4,10,-25,-26,-16,-47,-531.52308E+15,-39,1,13,8,14,-2,42,64,1011.52308E+15,6,1,8,-17,-1,28,43,-7,611.52308E+15,5,-4,3,-2,-4,-41,-27,-21,-911.52308E+15,-33,-3,-17,-5,-10,48,-1,15,-61.52308E+15,-18,1,-23,4,1,-20,-27,-18,-1001.52308E+15,17,4,7,-7,-7,-34,-15,18,-171.52308E+15,18,1,-4,-15,2,8,21,2,331.52308E+15,-10,-1,7,-3,7,-14,-37,-9,-601.52308E+15,12,-8,5,16,-9,-10,1,-16,-91.52308E+15,-18,-5,7,5,-19,40,54,37,1011.52308E+15,-2,3,9,-7,1,-1,16,-6,131.52308E+15,7,-5,5,7,-1,-3,-8,0,21.52308E+15,5,-5,-19,-2,-8,-7,-26,-7,-691.52308E+15,6,13,34,17,11,-10,-9,9,711.52308E+15,-48,-1,-7,5,7,15,26,-1,-41.52308E+15,39,1,-4,11,7,-21,-12,13,341.52308E+15,-24,-6,-8,2,2,15,-12,-26,-571.52308E+15,7,5,9,7,-1,11,7,7,521.52308E+15,2,-6,-5,-7,-13,-29,14,-4,-481.52308E+15,-24,-11,-8,-4,-6,36,-7,1,-231.52308E+15,7,12,2,-3,-7,37,-11,26,631.52308E+15,-32,-9,-8,-12,-34,-30,3,-15,-1371.52308E+15,20,1,9,-19,11,9,-8,-9,141.52308E+15,-3,4,-2,7,19,-32,-8,2,-131.52308E+15,-12,-4,11,6,1,-6,6,-5,-31.52308E+15,-9,-8,-16,0,12,-14,-18,-3,-561.52308E+15,8,4,-8,11,-1,-3,4,21,361.52308E+15,-3,-7,11,-12,-23,-2,-10,-18,-641.52308E+15,31,11,25,5,12,6,7,13,1101.52308E+15,-27,-5,-18,-10,30,-10,-9,1,-481.52308E+15,5,-5,-10,1,-27,15,12,-3,-121.52308E+15,51,0,6,21,-13,-13,4,1,571.52308E+15,-29,6,6,16,25,-15,-14,-20,-251.52308E+15,-14,-11,-25,-50,13,-11,12,15,-711.52308E+15,22,8,4,14,-23,29,20,4,781.52308E+15,-18,-2,-4,-31,-7,-26,-17,0,-1051.52308E+15,14,-13,-17,-26,-5,-75,-26,-13,-1611.52308E+15,19,-2,11,28,-12,82,40,8,1741.52308E+15,-27,-9,-4,-12,5,-47,-22,-25,-1411.52308E+15,-21,3,-19,-21,-3,-14,-4,16,-631.52308E+15,9,0,7,-2,-14,3,3,-4,21.52308E+15,3,4,10,25,18,-12,-12,-6,301.52308E+15,-2,2,-3,-7,9,3,0,4,61.52308E+15,-4,6,19,22,19,33,8,0,1031.52308E+15,-25,-14,-14,22,-36,-14,-19,-19,-1191.52308E+15,-2,-1,0,-3,-25,-15,-13,-32,-911.52308E+15,64,-3,-11,-4,8,24,8,-14,721.52308E+15,-18,8,5,4,17,-2,20,22,561.52308E+15,0,14,12,6,9,9,-10,0,401.52308E+15,4,7,-9,-41,-2,13,10,-5,-231.52308E+15,-11,-7,1,15,-3,-7,-10,-62,-841.52308E+15,-5,-5,4,-1,12,7,11,1,241.52308E+15,9,-13,-27,-32,10,8,1,-80,-1241.52308E+15,23,2,1,-1,-42,-30,5,81,391.52308E+15,4,6,-1,-37,21,-2,-11,1,-191.52308E+15,-23,3,-10,3,6,7,-7,-19,-401.52308E+15,3,12,-13,-7,3,15,16,-12,171.52308E+15,11,1,7,37,17,-20,-18,-39,-41.52308E+15,-18,-3,-1,-23,0,-3,-4,9,-431.52308E+15,12,-8,-2,-16,-11,-4,-22,-2,-531.52308E+15,-3,-11,13,44,-11,16,46,13,1071.52308E+15,-8,0,9,-6,-7,-5,-8,-6,-311.52308E+15,-5,2,11,21,-6,-2,2,20,431.52308E+15,1,-4,3,19,-9,-4,-11,-23,-281.52308E+15,-2,3,20,27,14,1,-36,9,361.52308E+15,8,-6,-16,6,-39,-17,12,20,-321.52308E+15,-12,-2,-4,13,5,30,57,22,1091.52308E+15,2,-2,-10,-5,-17,-12,1,-2,-451.52308E+15,27,4,2,-39,5,18,4,8,291.52308E+15,-28,6,-4,-23,18,-11,-33,8,-671.52308E+15,29,-14,-14,-20,4,-17,-22,-81,-1351.52308E+15,-64,5,-2,-23,3,-8,19,-9,-791.52308E+15,11,9,3,-24,16,28,16,26,851.52308E+15,-18,-15,-17,-25,-19,-12,-16,-50,-1721.52308E+15,-5,-26,-4,18,-16,1,10,-95,-1171.52308E+15,114,24,14,-31,5,8,36,101,2711.52308E+15,55,34,22,-32,12,-14,-5,-119,-471.52308E+15,30,-8,11,74,20,0,-1,-63,631.52308E+15,-108,10,-6,-34,0,-12,-27,-12,-1891.52308E+15,24,-24,18,74,-21,7,-13,-55,101.52308E+15,39,-57,-15,-66,-27,-14,4,87,-491.52308E+15,27,44,-12,-90,7,2,-3,7,-181.52308E+15,-9,75,49,96,-4,-12,1,1,1971.52308E+15,46,9,22,40,39,18,-9,34,1991.52308E+15,-68,-75,0,-63,0,-6,16,-41,-2371.52308E+15,-17,-27,-12,-9,-15,4,-11,-103,-1901.52308E+15,-10,-22,-10,-93,-29,-20,7,92,-851.52308E+15,-43,95,-42,-127,14,2,-19,40,-801.52308E+15,37,127,71,33,17,5,7,83,3801.52308E+15,18,-62,-50,40,-12,3,53,127,1171.52308E+15,-56,-11,38,51,10,5,-66,-108,-1371.52308E+15,19,91,-49,-34,7,-7,-6,48,691.52308E+15,-2,-44,3,70,20,3,-11,-43,-41.52308E+15,113,-44,-11,-7,20,-8,0,-48,151.52308E+15,10,43,26,83,5,19,25,67,2781.52308E+15,-26,-10,-26,-17,-31,2,21,-79,-1661.52308E+15,-125,-29,8,-9,-43,-6,-3,-72,-2791.52308E+15,15,57,59,-25,1,3,20,-103,271.52308E+15,127,33,-37,-55,17,19,21,74,1991.52308E+15,30,-128,-8,-31,21,-8,-9,-91,-2241.52308E+15,28,56,23,-35,18,-2,11,-75,241.52308E+15,-62,5,-5,92,13,1,-14,-22,81.52308E+15,-106,-61,-16,-72,-16,-20,-15,17,-2891.52308E+15,27,5,31,-28,-17,-7,17,-31,-31.52308E+15,60,-9,-68,4,7,8,0,-4,-21.52308E+15,-47,8,25,-23,4,3,-1,-38,-691.52308E+15,-75,-14,25,18,-1,-22,-9,-53,-1311.52308E+15,-128,-128,-32,71,-12,-3,6,9,-2171.52308E+15,77,67,15,-75,5,7,-18,35,1131.52308E+15,-28,47,20,-21,8,8,-11,52,751.52308E+15,-37,-72,-41,-17,8,1,5,-39,-1921.52308E+15,37,49,23,122,-18,1,3,-123,941.52308E+15,-46,-51,-11,11,-18,-14,-1,-68,-1981.52308E+15,24,12,-1,-63,0,17,8,23,201.52308E+15,36,-15,-2,-29,8,19,2,-18,11.52308E+15,-18,-36,25,-3,-6,-3,-21,-36,-981.52308E+15,-8,3,-2,3,-28,-15,-12,39,-201.52308E+15,10,0,-21,-48,8,7,12,31,-11.52308E+15,24,-18,-13,-90,2,-49,-31,-30,-2051.52308E+15,1,20,7,-20,29,85,12,15,1491.52308E+15,-15,-8,-28,-36,-41,4,12,40,-721.52308E+15,-37,-32,-9,21,-1,-74,-32,-10,-1741.52308E+15,29,20,2,43,-7,63,19,10,1791.52308E+15,6,10,9,-23,33,-94,-21,29,-511.52308E+15,-20,-26,-36,47,-27,80,-1,11,281.52308E+15,6,5,32,32,-4,-49,1,-6,171.52308E+15,29,16,12,53,-16,-20,11,15,1001.52308E+15,1,1,-7,53,-7,-37,-6,4,21.52308E+15,-38,-34,-4,51,6,-10,-13,-8,-501.52308E+15,-22,-3,-2,-8,17,-4,-10,-6,-381.52308E+15,34,18,-19,-115,20,-6,-2,10,-601.52308E+15,-29,-7,19,-106,-19,-20,-18,-4,-1841.52308E+15,0,1,7,-47,-33,23,25,15,-91.52308E+15,-6,2,-13,-91,16,24,14,24,-301.52308E+15,0,0,7,-22,1,-8,-9,-8,-391.52308E+15,2,-13,-16,22,0,-4,-9,-8,-261.52308E+15,-8,0,12,30,6,-66,-29,6,-491.52308E+15,-1,-5,-7,-17,-7,77,16,0,561.52308E+15,11,1,-6,18,16,40,11,-5,861.52308E+15,-4,-3,-20,-32,-30,-42,-25,-7,-1631.52308E+15,12,7,15,-7,70,1,13,1,1121.52308E+15,-21,-6,1,38,-26,21,22,45,741.52308E+15,9,2,1,59,38,17,7,-18,1151.52308E+15,2,-1,-7,-44,-9,35,-22,-19,-651.52308E+15,-19,-10,-26,-21,-22,-32,24,20,-861.52308E+15,51,0,1,5,8,-2,-27,-80,-441.52308E+15,16,5,4,-6,24,17,-9,-3,481.52308E+15,-1,3,12,-14,16,1,55,-11,611.52308E+15,-6,1,-10,5,-35,-25,-42,43,-691.52308E+15,27,-7,11,51,-8,4,-22,-66,-101.52308E+15,76,35,16,-11,-14,3,100,112,3171.52308E+15,12,-3,6,-24,17,40,-9,18,571.52308E+15,2,47,-14,21,64,-8,3,-50,651.52308E+15,-20,-14,-4,-40,-8,-3,-22,-34,-1451.52308E+15,-32,-16,-16,7,-46,-36,-39,-40,-2181.52308E+15,5,-5,-14,-2,-25,7,16,18,01.52308E+15,13,-17,-20,-23,-26,-15,-4,-21,-1131.52308E+15,-24,-5,10,27,43,-3,-5,14,571.52308E+15,-11,4,1,58,-27,-8,-9,-7,11.52308E+15,10,6,10,90,-37,12,19,3,1131.52308E+15,-4,-8,6,50,8,4,-4,-7,451.52308E+15,-10,-1,-12,-5,3,-5,-1,24,-71.52308E+15,-10,-18,-7,-67,17,-61,-14,-4,-1641.52308E+15,3,10,11,-45,6,51,-2,-7,271.52308E+15,-7,-10,13,-26,11,2,10,10,31.52308E+15,3,2,1,-40,-15,-21,14,35,-211.52308E+15,25,-4,-4,-36,-29,-2,-13,-48,-1111.52308E+15,-3,0,-4,-17,-6,-34,-22,-11,-971.52308E+15,-1,2,-2,2,13,10,5,14,431.52308E+15,24,104,23,16,-5,12,5,-39,1401.52308E+15,21,114,-24,-70,20,-7,-16,-32,61.52308E+15,15,61,-107,-113,55,9,5,7,-681.52308E+15,-1,-33,-125,-128,14,2,6,-4,-2691.52308E+15,-17,-101,-22,76,-17,-9,-3,-9,-1021.52308E+15,-25,-128,101,127,-81,0,-10,-1,-171.52308E+15,91,99,127,50,-33,-10,0,4,3281.52308E+15,1,116,56,101,-19,13,1,-8,2611.52308E+15,-50,120,-72,-113,8,6,2,30,-691.52308E+15,-33,120,-96,-50,33,5,-2,4,-191.52308E+15,8,56,-74,99,-11,1,4,-40,431.52308E+15,-1,1,-51,-31,-5,-17,-10,12,-1021.52308E+15,21,-3,-14,35,8,7,4,1,591.52308E+15,-27,-38,-13,-64,25,4,-4,4,-1131.52308E+15,-16,-59,0,-119,-11,-11,-4,-10,-2301.52308E+15,27,-19,-6,-52,3,15,-2,-15,-491.52308E+15,-9,-45,-8,-57,-9,1,5,8,-1141.52308E+15,14,-22,14,57,4,8,-1,-9,651.52308E+15,-29,-53,1,104,12,-3,-3,7,361.52308E+15,-10,-27,42,47,-8,-7,-2,0,351.52308E+15,-5,-35,15,-7,-21,0,0,6,-471.52308E+15,2,-12,-20,-24,14,-10,-4,11,-431.52308E+15,-24,-27,-3,-64,23,-25,-16,-1,-1371.52308E+15,-10,-28,5,-60,-69,25,9,0,-1281.52308E+15,36,-15,-11,-11,21,-8,-3,-39,-301.52308E+15,-11,9,1,-33,5,1,2,8,-181.52308E+15,3,-27,-25,-24,9,-1,-4,-59,-1281.52308E+15,-79,1,12,-19,31,-12,5,79,181.52308E+15,23,-2,4,4,-11,-3,-6,-27,-181.52308E+15,1,-10,0,7,-14,-1,-4,-25,-461.52308E+15,-19,-10,7,6,7,3,6,8,81.52308E+15,9,-7,-5,20,11,3,2,-16,171.52308E+15,19,-5,-1,14,-16,3,4,41,591.52308E+15,-33,6,-7,3,11,4,-1,35,181.52308E+15,-4,-15,-11,1,-21,2,2,-17,-631.52308E+15,50,12,21,39,5,1,6,78,2121.52308E+15,-12,38,5,13,11,6,2,-5,581.52308E+15,20,-12,-6,2,2,3,-5,-25,-211.52308E+15,-15,-3,-9,-5,-7,5,-13,3,-441.52308E+15,27,-9,14,28,9,-8,-16,-118,-731.52308E+15,-42,-17,-15,-16,-15,-8,28,14,-711.52308E+15,15,12,-9,-10,-5,7,-5,30,351.52308E+15,-7,3,7,-3,-1,-7,1,8,11.52308E+15,7,-9,0,0,6,-40,-18,-22,-761.52308E+15,-3,-5,4,18,-8,9,1,32,481.52308E+15,-16,-13,-13,-11,-22,15,-12,-36,-1081.52308E+15,-17,-13,9,23,35,-18,4,-47,-241.52308E+15,29,2,-5,19,-32,14,51,64,1421.52308E+15,2,0,-9,-7,12,14,33,27,721.52308E+15,2,0,-4,20,-1,-15,-38,-1,-371.52308E+15,40,16,43,12,-13,15,12,86,2111.52308E+15,-20,-5,-5,-12,17,-10,-38,11,-621.52308E+15,1,-1,4,11,-2,-13,-27,-29,-561.52308E+15,-11,-3,-4,5,-5,-7,23,0,-21.52308E+15,-19,-6,-25,-17,-6,23,-15,-46,-1111.52308E+15,-1,-4,-8,0,2,-16,-3,-42,-721.52308E+15,3,-3,7,-2,7,21,-8,-3,221.52308E+15,4,-10,-27,-47,10,7,1,-19,-811.52308E+15,1,-7,-14,-29,3,-4,10,31,-91.52308E+15,8,-8,-18,-38,5,8,27,-25,-411.52308E+15,-10,-7,-4,-44,15,-8,-16,-20,-941.52308E+15,2,-14,-8,-25,1,-20,-46,-13,-1231.52308E+15,15,-2,-14,-38,-4,6,24,-9,-221.52308E+15,-26,-1,0,-29,3,16,3,-16,-501.52308E+15,0,-6,-9,-22,5,-4,-14,-70,-1201.52308E+15,43,7,7,5,23,-37,72,98,2181.52308E+15,-1,-8,-20,-7,1,32,6,36,391.52308E+15,-9,-4,0,5,7,27,-33,-48,-551.52308E+15,-13,-8,-2,14,-5,-12,-18,-35,-791.52308E+15,-8,-3,-9,0,-15,-11,-9,-47,-1021.52308E+15,-17,-7,-25,13,-12,-20,-8,14,-621.52308E+15,7,10,44,27,3,8,13,8,1201.52308E+15,2,0,-2,12,-3,-14,-9,32,181.52308E+15,-2,2,10,19,-2,21,4,-21,311.52308E+15,-24,-2,4,28,4,-3,3,3,131.52308E+15,9,1,-6,26,-29,-6,-10,24,91.52308E+15,14,-5,9,0,-7,2,12,14,391.52308E+15,-8,14,0,22,0,11,5,-7,371.52308E+15,-10,0,17,24,-4,-5,-10,-18,-61.52308E+15,0,1,-3,0,6,-16,-4,-4,-201.52308E+15,4,4,-9,8,-7,9,4,21,341.52308E+15,-5,6,21,13,-1,5,4,2,451.52308E+15,-2,4,5,-5,0,-3,-10,-6,-171.52308E+15,3,-9,-11,-1,0,4,4,-11,-211.52308E+15,-1,-3,-10,12,-16,-13,-6,-31,-681.52308E+15,8,-8,-9,-3,2,18,11,63,821.52308E+15,30,6,32,-11,-2,2,8,11,761.52308E+15,-23,9,2,17,-1,-12,-11,-2,-211.52308E+15,-17,7,12,12,-1,-1,5,13,301.52308E+15,-7,-1,-18,-1,-2,0,-11,-42,-821.52308E+15,0,1,6,7,-8,-6,-3,-3,-61.52308E+15,12,0,0,11,-7,3,4,12,351.52308E+15,2,1,1,-7,4,1,1,1,41.52308E+15,-3,-3,3,15,-8,0,-2,19,211.52308E+15,-25,9,15,11,-4,-10,-7,-9,-201.52308E+15,30,5,-3,-20,2,0,-3,-25,-141.52308E+15,13,3,-3,-3,5,4,7,46,721.52308E+15,6,2,4,15,0,-12,0,-5,101.52308E+15,-6,-6,0,25,5,45,17,3,831.52308E+15,-12,1,8,10,-1,32,18,-3,531.52308E+15,3,0,-1,-1,-20,19,-14,-22,-361.52308E+15,-6,-5,9,23,15,-36,-18,-4,-221.52308E+15,-2,1,-6,-2,-26,-63,-10,-5,-1131.52308E+15,2,4,1,25,-6,58,15,7,1061.52308E+15,8,3,14,52,24,65,35,21,2221.52308E+15,-14,1,8,-11,-4,-7,-8,-16,-511.52308E+15,2,-1,-18,-18,-10,-26,-15,-1,-871.52308E+15,2,-4,-4,10,-19,-58,-28,16,-851.52308E+15,-5,-4,4,2,2,-18,3,19,31.52308E+15,-5,2,9,-10,23,18,-11,-22,41.52308E+15,-13,-6,-33,-54,-3,11,-2,-51,-1511.52308E+15,-23,-17,-31,-63,15,-12,-13,-27,-1711.52308E+15,-76,-14,-34,-83,24,1,-1,62,-1211.52308E+15,84,37,-12,-41,20,17,23,90,2181.52308E+15,28,-24,6,3,25,7,2,10,571.52308E+15,-27,12,-34,-9,32,1,-4,-44,-731.52308E+15,-4,-14,-8,-7,6,-19,-16,-76,-1381.52308E+15,-31,-9,-6,-14,-53,-2,1,-55,-1691.52308E+15,-47,-17,0,45,-23,6,-8,-80,-1241.52308E+15,57,27,27,46,-2,-14,11,90,2421.52308E+15,12,-11,24,-2,16,-10,6,-25,101.52308E+15,-2,-4,6,-12,8,-3,-16,-30,-531.52308E+15,5,4,-13,-56,-2,18,21,10,-131.52308E+15,-19,-30,-15,31,16,-10,-11,-63,-1011.52308E+15,4,-26,-14,-33,-18,-15,-5,49,-581.52308E+15,-33,6,-32,16,11,14,7,-75,-861.52308E+15,49,22,-15,-26,24,-4,-5,84,1291.52308E+15,22,18,1,-24,2,-10,3,46,581.52308E+15,31,-16,-4,-29,-4,9,12,11,101.52308E+15,-18,-19,-14,-35,-7,-4,-8,-31,-1361.52308E+15,-14,1,3,-10,-5,-8,-4,-10,-471.52308E+15,-29,-23,12,-18,-19,-6,0,-60,-1431.52308E+15,26,27,-16,-37,-1,-10,-33,-91,-1351.52308E+15,29,-2,-3,-54,29,14,43,78,1341.52308E+15,-7,1,-9,28,23,7,-15,-47,-191.52308E+15,24,-8,-6,-77,3,-10,-1,27,-481.52308E+15,-33,-4,-16,10,13,-17,2,-60,-1051.52308E+15,-22,2,3,15,-9,27,4,-6,141.52308E+15,24,2,9,88,-9,18,19,48,1991.52308E+15,-29,3,61,77,-43,-19,-10,-33,71.52308E+15,-5,15,50,120,-22,-26,-43,-2,871.52308E+15,22,-9,38,91,-35,-16,50,39,1801.52308E+15,-4,2,-9,-8,-51,-16,-20,4,-1021.52308E+15,-9,-12,10,75,-11,16,-13,-22,341.52308E+15,9,45,34,23,-25,-5,13,20,1141.52308E+15,18,-5,13,98,9,16,-1,10,1581.52308E+15,-35,-13,-20,-66,9,2,-8,-27,-1581.52308E+15,-2,16,4,-16,16,6,5,22,511.52308E+15,39,0,-35,-58,-4,-3,4,22,-351.52308E+15,-15,-30,-53,-63,1,-1,-16,-26,-2031.52308E+15,-2,12,37,16,1,-5,9,68,1361.52308E+15,-6,12,-22,36,3,-10,-8,-39,-341.52308E+15,18,14,7,9,15,20,25,40,1481.52308E+15,-12,-4,8,20,5,-3,-16,-23,-251.52308E+15,4,-25,7,78,7,1,-2,-18,521.52308E+15,5,-26,-49,-31,5,8,3,0,-851.52308E+15,-2,23,-11,127,-2,-4,-8,-54,691.52308E+15,4,48,24,-69,-26,-12,-3,67,331.52308E+15,-10,-7,58,49,-1,-5,-6,-76,21.52308E+15,-5,-78,2,-71,-21,-3,0,-17,-1931.52308E+15,11,17,14,-54,-1,7,3,3,01.52308E+15,36,26,-62,-78,1,-7,-9,38,-551.52308E+15,33,26,-28,-74,4,-1,-2,-3,-451.52308E+15,-43,40,8,-112,19,5,3,-9,-891.52308E+15,-11,-35,-27,-119,5,-6,-7,-29,-2291.52308E+15,-83,-63,30,-29,4,2,-7,-91,-2371.52308E+15,49,-2,-14,-98,12,6,17,92,621.52308E+15,46,48,-12,-12,-2,-8,2,11,731.52308E+15,14,17,-2,-54,-8,-2,10,91,661.52308E+15,9,-24,-9,-18,-1,-4,-10,-44,-1011.52308E+15,-37,-9,13,-9,1,-5,-11,-63,-1201.52308E+15,-22,-11,-8,7,2,3,-2,-22,-531.52308E+15,4,-26,-8,-53,-1,2,1,1,-801.52308E+15,-1,18,21,-5,-13,-6,-9,-16,-111.52308E+15,-13,0,12,41,11,1,6,-1,571.52308E+15,32,16,10,-2,4,2,2,25,891.52308E+15,-21,-6,-30,-9,6,-1,-3,-15,-791.52308E+15,8,2,-28,0,3,-2,-4,-14,-351.52308E+15,11,9,-21,4,-3,-4,-3,-11,-181.52308E+15,-16,-9,0,0,0,3,7,35,201.52308E+15,2,-7,-5,27,-10,-5,-4,-13,-151.52308E+15,-5,5,14,21,4,0,-2,-1,361.52308E+15,11,6,12,11,-1,3,6,-5,431.52308E+15,19,0,15,1,-2,-5,-5,-31,-81.52308E+15,-22,-10,16,7,-7,-3,-3,-19,-411.52308E+15,0,12,11,59,-6,4,4,12,961.52308E+15,-8,4,10,26,-14,-8,-7,-2,11.52308E+15,-5,-6,11,48,-6,1,-1,-15,271.52308E+15,3,7,21,50,-28,20,25,2,1001.52308E+15,11,4,21,23,-8,-8,-6,-3,341.52308E+15,-8,-3,-11,-17,6,-10,-6,-1,-501.52308E+15,-1,-6,-10,-7,1,33,6,-16,01.52308E+15,-3,2,-8,7,-5,-9,-9,13,-121.52308E+15,4,-6,-22,-4,4,0,-4,0,-281.52308E+15,-19,1,5,-20,9,9,1,-3,-171.52308E+15,9,1,-15,-22,10,-1,-2,12,-81.52308E+15,-2,-1,-3,21,18,1,-13,-11,101.52308E+15,1,-2,-13,-29,-5,1,7,-3,-431.52308E+15,3,-2,-20,-34,-10,-16,-4,6,-771.52308E+15,-2,-2,9,31,-9,1,-9,2,211.52308E+15,-5,-3,-9,9,18,-16,11,-2,31.52308E+15,-1,2,7,-38,-4,18,14,8,61.52308E+15,3,2,8,29,2,31,10,4,891.52308E+15,-5,0,-29,0,2,-31,3,9,-511.52308E+15,-2,-6,1,-78,9,-73,-43,-16,-2081.52308E+15,0,7,2,37,-9,48,6,-3,881.52308E+15,-7,-1,-5,8,4,24,21,5,491.52308E+15,1,-6,-9,5,0,-15,-17,3,-381.52308E+15,0,-1,6,28,7,35,9,-5,791.52308E+15,2,3,16,0,2,9,26,8,661.52308E+15,-3,-5,-14,-9,11,-25,-19,-7,-711.52308E+15,0,3,0,-4,-3,16,-11,0,11.52308E+15,-1,-6,-6,10,-8,-33,-14,0,-581.52308E+15,2,2,6,-5,6,-2,19,1,291.52308E+15,4,-3,-17,6,-2,15,-3,1,11.52308E+15,-4,1,7,3,1,-21,5,-1,-91.52308E+15,-5,-4,9,-26,-13,11,-27,-11,-661.52308E+15,-3,-4,-20,7,-4,-2,21,3,-21.52308E+15,0,0,-2,-21,5,-14,5,5,-221.52308E+15,-2,0,7,-5,1,-7,-12,-8,-261.52308E+15,-1,4,9,2,1,1,4,2,221.52308E+15,-4,-4,-2,3,-1,18,-23,-4,-171.52308E+15,0,0,-8,-7,9,6,7,0,71.52308E+15,-5,-4,-1,-6,-2,-2,6,7,-71.52308E+15,-5,-7,-4,3,2,21,12,-24,-21.52308E+15,7,-6,-2,1,8,-52,-30,18,-561.52308E+15,-1,6,1,4,-5,7,3,7,221.52308E+15,5,-7,4,-13,-7,10,9,-7,-61.52308E+15,-5,-2,-10,-4,-10,-7,2,-3,-391.52308E+15,-7,-13,-2,-15,1,-15,-15,-9,-751.52308E+15,1,19,10,-3,-3,2,0,-10,161.52308E+15,-3,-6,-9,-3,9,7,9,8,121.52308E+15,4,-14,-8,-3,3,1,2,-3,-181.52308E+15,4,12,5,11,2,0,-1,-7,261.52308E+15,-1,-8,-4,-8,-4,-1,-2,24,-41.52308E+15,-2,6,8,5,0,-11,-4,-5,-31.52308E+15,6,16,12,12,6,-1,9,13,731.52308E+15,-1,-8,-2,11,1,20,-2,-12,71.52308E+15,-4,-7,-3,-6,-6,10,0,-14,-301.52308E+15,-19,2,-6,3,-12,-4,-2,-12,-501.52308E+15,22,-3,1,-10,-10,5,2,-9,-21.52308E+15,1,2,-6,-8,10,-14,-8,-6,-291.52308E+15,-2,-2,9,5,5,-15,-4,32,281.52308E+15,5,-12,-13,-4,1,9,7,-5,-121.52308E+15,-6,-2,15,18,-8,3,5,25,501.52308E+15,-9,4,0,-8,0,-17,-10,-11,-511.52308E+15,0,5,-1,2,-10,-8,-9,-18,-391.52308E+15,-2,-12,-1,5,-3,3,6,-6,-101.52308E+15,-9,-5,-6,-7,-3,1,2,7,-201.52308E+15,2,5,3,-6,-4,-11,-3,-2,-161.52308E+15,-2,-7,-7,6,-1,1,-1,-5,-161.52308E+15,4,5,7,1,1,6,4,13,411.52308E+15,-3,-1,-13,-12,3,3,-2,-5,-301.52308E+15,-1,-2,-4,4,-1,-2,-2,6,-21.52308E+15,-4,-2,2,7,-3,-5,-2,-19,-261.52308E+15,-8,-7,-2,-16,4,-2,0,-4,-351.52308E+15,17,-2,0,10,0,0,-4,4,251.52308E+15,-14,-9,-6,3,-2,-12,-2,26,-161.52308E+15,14,4,8,-2,-9,-2,7,11,311.52308E+15,6,2,-9,-2,-4,8,24,10,351.52308E+15,-19,3,-3,9,2,11,-12,-37,-461.52308E+15,-16,-4,-5,6,-9,-6,-14,-30,-781.52308E+15,18,2,-6,-20,2,-14,-15,13,-201.52308E+15,22,9,10,10,-3,-6,-9,50,831.52308E+15,-9,-1,4,11,-3,-4,25,-5,181.52308E+15,7,-1,-7,-12,13,24,3,-2,251.52308E+15,-17,-3,-4,8,-12,-3,-2,-31,-641.52308E+15,-3,5,3,16,-3,-5,-3,-13,-31.52308E+15,5,-13,-2,-15,-6,-9,-7,14,-331.52308E+15,2,4,-4,6,8,-4,-2,-10,01.52308E+15,3,-18,-4,29,0,-6,-2,-5,-31.52308E+15,-7,15,2,36,3,0,-13,-1,351.52308E+15,3,1,-13,-40,14,13,11,12,11.52308E+15,3,0,3,-12,-19,-11,-9,4,-411.52308E+15,-7,-3,0,-31,-3,2,25,-2,-191.52308E+15,35,1,-5,-36,3,-7,-18,-24,-511.52308E+15,-28,-12,-1,15,-2,2,10,10,-61.52308E+15,32,0,10,36,8,-1,-10,17,921.52308E+15,-21,3,-5,-12,0,4,3,11,-171.52308E+15,4,-3,0,4,-5,-3,7,-4,01.52308E+15,-13,2,1,8,-9,-6,-13,-45,-751.52308E+15,-15,-20,5,-1,-5,1,5,20,-101.52308E+15,34,57,0,-10,9,-3,-6,26,1071.52308E+15,-16,-12,-23,-12,8,5,6,-8,-521.52308E+15,5,1,7,-5,-1,1,-11,8,51.52308E+15,-8,8,4,-26,6,-4,4,-8,-241.52308E+15,-9,-22,-1,12,3,-3,-5,-21,-461.52308E+15,-7,-2,1,-7,2,4,3,15,91.52308E+15,11,10,-16,104,2,-3,-13,-2,931.52308E+15,-9,0,-4,21,4,1,16,-9,201.52308E+15,-1,-14,-24,-17,1,2,0,4,-491.52308E+15,5,-24,4,-50,2,-5,-11,-33,-1121.52308E+15,-21,-5,-13,-33,8,-2,-3,22,-471.52308E+15,-9,-55,28,0,-5,13,-1,-35,-641.52308E+15,37,76,-17,-33,-4,-12,20,25,921.52308E+15,-5,30,15,-16,2,5,-13,14,321.52308E+15,7,-38,-23,-84,-14,-7,-4,43,-1201.52308E+15,-17,-11,13,37,-3,3,10,-21,111.52308E+15,-10,-7,16,-46,-5,-3,-14,2,-671.52308E+15,-15,-14,10,27,-9,-3,4,-18,-181.52308E+15,13,31,24,36,-11,-7,-5,-22,591.52308E+15,-16,14,-11,15,-10,-5,-2,18,31.52308E+15,-6,-33,8,26,-5,2,-4,-17,-291.52308E+15,6,17,0,8,-5,-5,4,9,341.52308E+15,2,-14,9,-17,1,-1,-4,-1,-251.52308E+15,-8,16,-11,-35,1,-5,1,7,-341.52308E+15,27,-4,-16,2,7,-5,-8,-11,-81.52308E+15,-13,-10,-13,-58,2,10,3,-6,-851.52308E+15,34,11,29,73,5,5,13,22,1921.52308E+15,-37,-3,-32,-22,6,-2,1,-13,-1021.52308E+15,38,13,-8,-23,8,-1,-24,4,71.52308E+15,-10,-8,2,31,8,-20,4,0,71.52308E+15,15,34,-18,-42,-3,11,20,-38,-211.52308E+15,27,2,29,-13,4,-1,-12,6,421.52308E+15,-68,-22,-22,23,-3,4,4,24,-601.52308E+15,35,26,-13,-13,-3,-4,-15,-17,-41.52308E+15,61,3,4,-2,-6,-9,-46,-62,-571.52308E+15,-82,-4,-2,3,4,1,27,78,251.52308E+15,74,-9,0,3,-5,6,26,-21,741.52308E+15,-19,-19,30,19,-1,7,1,6,241.52308E+15,-18,2,-14,-7,0,4,1,-37,-691.52308E+15,28,49,-22,-10,-1,-5,-21,-14,41.52308E+15,-31,-36,11,-2,-8,-8,-19,7,-861.52308E+15,-18,2,2,2,-9,-1,9,21,81.52308E+15,16,-8,13,0,3,8,13,10,551.52308E+15,21,-7,-1,8,4,-3,-9,-15,-21.52308E+15,-46,-11,-3,35,6,-20,-7,7,-391.52308E+15,24,9,16,11,-7,45,23,-1,1201.52308E+15,-41,2,3,-16,1,57,20,20,461.52308E+15,29,-2,11,4,-20,-22,2,-7,-51.52308E+15,-7,7,-10,-20,12,-38,-24,-26,-1061.52308E+15,-18,-17,-19,28,0,-36,-32,-7,-1011.52308E+15,9,4,10,3,17,76,80,40,2391.52308E+15,15,7,-18,-74,12,3,4,2,-491.52308E+15,-1,-13,-14,-32,-7,-17,-7,-21,-1121.52308E+15,-7,-6,-23,-31,2,-49,-29,-6,-1491.52308E+15,-31,-10,-4,-5,10,-17,-26,11,-721.52308E+15,29,0,-13,-9,4,12,39,-1,611.52308E+15,-9,2,1,28,8,11,-9,-3,291.52308E+15,-2,-1,18,-15,-5,8,8,3,141.52308E+15,-7,0,-8,2,-8,-18,-17,-3,-591.52308E+15,15,-7,-41,28,-8,-2,-11,-14,-401.52308E+15,-1,10,79,41,-12,10,7,-16,1181.52308E+15,-16,-4,-33,-4,-2,16,17,34,81.52308E+15,1,5,7,-9,-13,-27,-14,-1,-511.52308E+15,10,-16,-3,27,-7,-14,-14,-5,-221.52308E+15,-8,-4,1,18,-5,10,10,1,231.52308E+15,12,5,-4,2,0,8,0,-2,211.52308E+15,13,-17,26,19,-8,-30,-4,24,231.52308E+15,-80,41,-10,2,-3,0,-3,20,-331.52308E+15,53,12,-6,-27,8,18,1,3,621.52308E+15,24,-10,-26,17,2,-2,2,2,91.52308E+15,-20,-5,8,-1,-7,-26,-10,-3,-641.52308E+15,9,-8,21,5,-1,5,-3,-9,191.52308E+15,-22,-11,-20,-22,-2,8,-4,12,-611.52308E+15,3,19,8,0,-2,-7,-1,-19,11.52308E+15,0,-7,-1,26,0,-7,-17,10,41.52308E+15,19,0,-8,6,8,9,55,2,911.52308E+15,-9,3,-10,-4,2,2,-9,0,-251.52308E+15,10,-8,-8,26,-1,-2,4,5,261.52308E+15,-37,1,-7,-42,-3,-12,-21,-14,-1351.52308E+15,14,-7,19,-3,-2,-2,-27,-5,-131.52308E+15,0,-3,7,20,-10,0,23,-1,361.52308E+15,-12,1,5,4,-2,-15,-17,-5,-411.52308E+15,6,3,-12,2,8,19,28,3,571.52308E+15,12,2,17,12,-15,6,-18,-3,131.52308E+15,-12,-3,7,2,-6,-16,-2,0,-301.52308E+15,3,7,18,-18,-5,-3,-7,-2,-71.52308E+15,4,-3,-29,-11,16,-29,-34,-7,-931.52308E+15,20,-9,16,18,-9,-11,5,-4,261.52308E+15,-28,-3,-17,-20,1,66,55,10,641.52308E+15,3,3,-1,-9,6,-8,-3,8,-11.52308E+15,3,2,8,13,-15,-26,-14,-18,-471.52308E+15,-8,-2,13,-52,12,-26,-79,-18,-1601.52308E+15,13,-9,-23,13,-2,18,76,30,1161.52308E+15,3,13,1,-9,6,6,5,-5,201.52308E+15,-7,0,-10,0,9,21,1,3,171.52308E+15,7,1,29,-19,-15,-9,-14,-15,-351.52308E+15,-15,-5,-1,3,-4,-25,-59,-39,-1451.52308E+15,0,-3,1,4,-3,18,-12,2,71.52308E+15,-14,-33,-6,-19,6,-10,66,51,411.52308E+15,43,22,-20,-4,11,24,3,46,1251.52308E+15,-39,10,-17,-13,-1,-9,-18,-64,-1511.52308E+15,26,-7,6,-21,15,-14,-22,27,101.52308E+15,2,3,-17,-31,-6,-15,-110,-2,-1761.52308E+15,1,5,-40,-9,2,40,126,19,1441.52308E+15,-1,0,14,-1,7,18,-68,5,-261.52308E+15,-8,-16,-18,-12,-8,-7,11,-34,-921.52308E+15,13,18,22,11,-2,-13,-20,-48,-191.52308E+15,-33,-46,-12,-5,-1,-18,-43,2,-1561.52308E+15,26,62,45,14,5,-10,4,16,1621.52308E+15,-8,5,2,14,-3,2,7,-14,51.52308E+15,-19,-22,3,12,-3,16,38,57,821.52308E+15,-2,2,11,24,1,-13,-4,-75,-561.52308E+15,8,-27,-19,-3,-16,-9,3,67,41.52308E+15,4,80,12,-10,4,8,-3,-10,851.52308E+15,5,-32,-20,10,-8,3,-3,14,-311.52308E+15,20,-17,22,-18,1,7,22,-19,181.52308E+15,-89,-26,15,-12,5,-25,-53,-3,-1881.52308E+15,13,-32,-14,-16,8,10,16,21,61.52308E+15,21,41,-9,-17,5,21,74,50,1861.52308E+15,-17,-15,-18,-25,1,-7,-41,-16,-1381.52308E+15,47,-4,-12,4,-4,-12,3,8,301.52308E+15,-92,-28,-8,14,-14,-3,-25,-62,-2181.52308E+15,35,24,36,-2,12,7,-6,-33,731.52308E+15,3,5,-15,-2,0,14,5,41,511.52308E+15,6,-11,-2,-5,30,-12,14,-19,11.52308E+15,-4,-3,3,6,-54,-4,1,17,-381.52308E+15,-3,7,-9,-19,33,10,2,-38,-171.52308E+15,6,6,-17,-15,-43,-27,-11,11,-901.52308E+15,10,29,5,13,45,13,-3,5,1171.52308E+15,10,-68,-13,-21,-48,7,17,-6,-1221.52308E+15,-6,51,-13,13,39,-3,-4,-2,751.52308E+15,-7,-17,5,-35,31,10,-5,5,-131.52308E+15,4,-22,25,97,4,-10,1,-16,831.52308E+15,12,-12,-36,-59,10,8,11,31,-351.52308E+15,-15,-27,-21,-27,-59,-8,-3,-34,-1941.52308E+15,-14,15,32,53,22,-3,-2,8,1111.52308E+15,18,6,-12,20,24,1,4,-3,581.52308E+15,1,3,14,72,-1,-36,-15,-1,371.52308E+15,-7,-17,-15,-19,-8,30,-1,-20,-571.52308E+15,4,3,3,-32,-27,31,34,6,221.52308E+15,0,-5,-3,-70,-41,-15,-7,1,-1401.52308E+15,4,14,20,91,21,19,2,-2,1691.52308E+15,-11,1,0,-53,-11,-57,-18,-6,-1551.52308E+15,0,1,18,111,31,3,-11,8,1611.52308E+15,-1,-1,-5,1,3,8,6,-10,11.52308E+15,2,16,-10,-9,35,3,7,3,471.52308E+15,7,-5,2,10,-32,-2,4,4,-121.52308E+15,-5,-2,-14,5,36,45,-6,-7,521.52308E+15,3,-7,-21,-18,-10,-37,-2,-8,-1001.52308E+15,-2,-4,0,-53,-29,-17,-4,2,-1071.52308E+15,-2,-1,4,28,19,49,17,4,1181.52308E+15,-3,1,-8,1,4,-57,-22,-16,-1001.52308E+15,3,4,-6,-54,-80,21,-1,-1,-1141.52308E+15,2,2,7,-8,72,-19,-3,3,561.52308E+15,-8,-10,-1,17,-6,-10,-4,-9,-311.52308E+15,-5,7,-4,-17,-8,-1,-21,-10,-591.52308E+15,4,-5,-3,-26,37,12,22,6,471.52308E+15,1,5,-3,-28,-67,1,-7,2,-961.52308E+15,-6,-4,3,18,111,-92,-29,-14,-131.52308E+15,7,4,4,-1,-98,79,18,11,241.52308E+15,7,2,1,-14,-55,-68,14,8,-1051.52308E+15,-5,2,4,10,19,20,-5,-9,361.52308E+15,0,2,12,19,32,14,7,4,901.52308E+15,-3,-6,-10,-16,5,-64,-39,-3,-1361.52308E+15,-3,0,-11,-15,90,36,27,-4,1201.52308E+15,0,4,17,49,-42,-18,-17,1,-61.52308E+15,-3,-4,-2,-10,-31,-34,-7,-3,-941.52308E+15,-4,1,3,-19,-20,70,4,-3,321.52308E+15,3,-2,-8,-17,-23,-10,1,4,-521.52308E+15,2,-2,-7,1,28,9,5,-1,351.52308E+15,-1,5,6,10,30,20,4,2,761.52308E+15,-1,2,-8,20,0,-40,4,-5,-281.52308E+15,-5,-3,12,29,-60,0,-16,-7,-501.52308E+15,1,2,-5,-57,-1,-7,-1,0,-681.52308E+15,-3,-4,4,-7,-61,-72,-24,-6,-1731.52308E+15,-6,-3,-15,-60,-9,38,-24,-5,-841.52308E+15,4,4,3,26,43,-37,35,5,831.52308E+15,5,3,0,20,37,17,18,14,1141.52308E+15,1,-3,-14,11,-77,-46,-1,1,-1281.52308E+15,-3,-3,3,39,3,-19,4,-4,201.52308E+15,-8,-5,0,11,-57,-4,-46,-11,-1201.52308E+15,1,1,6,13,40,6,18,3,881.52308E+15,-1,2,1,-16,-28,-29,-6,-2,-791.52308E+15,2,2,-2,18,14,30,13,2,791.52308E+15,-3,-4,-3,29,20,29,15,-6,771.52308E+15,-1,-2,-4,-34,-1,-6,-2,-1,-511.52308E+15,3,0,0,-43,-21,41,-5,4,-211.52308E+15,-3,-1,3,39,51,-42,6,0,531.52308E+15,0,2,1,-20,-30,18,-10,-3,-421.52308E+15,-4,-5,-5,6,12,-14,-15,-10,-351.52308E+15,-4,-5,4,-21,5,28,-24,-20,-371.52308E+15,7,2,-1,-8,-42,0,20,22,01.52308E+15,3,3,-8,-61,28,3,43,11,221.52308E+15,2,11,9,51,-27,44,-4,0,861.52308E+15,-10,-10,2,87,69,-13,-14,-9,1021.52308E+15,-8,-4,-5,-34,7,-44,-20,-19,-1271.52308E+15,5,-2,-4,0,0,4,-24,11,-101.52308E+15,2,4,-10,-56,-56,-30,-14,-4,-1641.52308E+15,3,-4,1,-6,-41,42,30,3,281.52308E+15,-3,1,6,24,-3,-9,-13,1,41.52308E+15,0,-8,-4,-21,7,35,57,6,721.52308E+15,5,-4,-4,-35,30,11,0,12,151.52308E+15,-3,4,-6,-18,-17,-3,-5,-8,-561.52308E+15,-5,-5,-5,-7,9,-40,-34,-7,-941.52308E+15,-6,4,15,29,16,5,0,-9,541.52308E+15,-2,-1,1,17,-22,-1,3,-17,-221.52308E+15,3,4,5,6,-2,11,-2,22,471.52308E+15,3,1,5,5,-9,-11,10,4,81.52308E+15,0,-8,-8,-29,-36,-1,-20,-3,-1051.52308E+15,4,-1,0,-5,-8,-9,2,-12,-291.52308E+15,-15,0,5,9,9,21,10,-1,381.52308E+15,0,0,3,61,74,19,22,1,1801.52308E+15,-3,3,-2,-23,-74,-36,-32,-7,-1741.52308E+15,-4,-15,-8,16,18,-68,-19,0,-801.52308E+15,9,3,4,-7,0,112,58,13,1921.52308E+15,-1,1,-7,-40,-101,-13,29,3,-1291.52308E+15,-3,0,13,20,127,-54,-37,-8,581.52308E+15,-3,4,3,-27,-48,-19,-2,0,-921.52308E+15,0,-3,1,25,-78,-9,-12,-2,-781.52308E+15,-3,-4,-18,-98,-1,-20,-11,-5,-1601.52308E+15,-6,-7,13,108,13,-20,-46,-14,411.52308E+15,8,10,10,32,8,101,97,26,2921.52308E+15,-2,-4,-3,-26,67,-48,-9,-3,-281.52308E+15,0,2,-18,-80,-33,-14,0,-11,-1541.52308E+15,-6,-18,0,64,3,-6,-18,-4,151.52308E+15,-4,-3,17,-16,5,-3,-16,4,-161.52308E+15,-3,18,41,-9,-23,1,-1,-25,-11.52308E+15,-11,-4,-15,-43,-9,3,3,-6,-821.52308E+15,13,10,8,1,11,45,17,-30,751.52308E+15,26,2,-41,-28,30,-5,2,88,741.52308E+15,13,-12,-13,-12,-13,2,0,19,-161.52308E+15,-4,8,22,39,34,-15,-12,-12,601.52308E+15,7,5,2,-38,-12,6,7,-15,-381.52308E+15,-41,0,6,21,-56,4,-6,-56,-1281.52308E+15,5,10,-6,-12,-38,1,-1,-2,-431.52308E+15,4,-30,10,16,31,-14,0,9,261.52308E+15,-5,5,-27,-28,-45,21,14,7,-581.52308E+15,-1,1,35,0,7,-33,-15,-10,-161.52308E+15,-4,-4,-7,24,-45,-2,-13,8,-431.52308E+15,-2,2,10,5,11,64,23,-3,1101.52308E+15,2,-1,-18,-78,-6,-57,2,19,-1371.52308E+15,2,-5,-8,-31,25,34,26,2,451.52308E+15,3,2,-12,-40,26,-41,-10,-1,-731.52308E+15,4,10,14,44,100,24,-2,-6,1881.52308E+15,4,1,3,-27,-71,-42,-7,16,-1231.52308E+15,-2,4,-2,-1,-9,-14,-23,-11,-581.52308E+15,-23,-15,-7,49,66,25,16,-10,1011.52308E+15,5,0,-9,-15,-72,-5,-2,6,-921.52308E+15,-4,-1,3,-3,-21,31,1,3,91.52308E+15,-18,-2,6,-19,0,-28,-11,-52,-1241.52308E+15,5,-10,-10,-21,-67,16,9,-5,-831.52308E+15,49,17,13,-4,88,-53,-10,99,1991.52308E+15,-5,-3,-9,-6,-65,27,9,-11,-631.52308E+15,2,-3,-7,-3,-50,-1,-9,-2,-731.52308E+15,-10,-4,-3,-15,-28,-9,-4,-36,-1091.52308E+15,-19,-4,-4,12,-56,-1,-4,-36,-1121.52308E+15,3,1,3,-2,56,-3,-10,18,661.52308E+15,2,-3,-12,7,22,1,15,-4,281.52308E+15,-6,0,-4,-25,-21,-3,-2,-4,-651.52308E+15,-2,2,8,-6,28,8,2,-6,341.52308E+15,-3,6,3,16,-7,-10,-11,-3,-91.52308E+15,-2,-11,-9,47,1,5,-10,-8,131.52308E+15,-3,5,-6,-42,76,-17,-9,3,71.52308E+15,-10,-2,-6,34,2,-31,-4,-32,-491.52308E+15,27,5,-1,-24,-16,14,6,48,591.52308E+15,-3,1,1,10,-30,3,-4,-4,-261.52308E+15,-3,-2,2,28,-43,10,-1,-12,-211.52308E+15,-42,13,0,63,27,16,-13,-115,-511.52308E+15,36,-35,15,101,72,-25,4,78,2461.52308E+15,22,28,-10,-40,-19,-1,7,46,331.52308E+15,4,-1,-1,22,-26,1,-1,7,51.52308E+15,-15,-4,6,-31,-109,-1,-5,-37,-1961.52308E+15,-28,-3,2,-23,4,10,-6,-66,-1101.52308E+15,10,0,5,-26,46,-6,-2,12,391.52308E+15,3,-4,-4,-47,17,-14,-6,0,-551.52308E+15,2,1,11,-17,-11,-18,-2,18,-161.52308E+15,-5,2,-16,-38,-16,76,38,2,431.52308E+15,-3,-3,28,-4,12,-19,-18,-3,-101.52308E+15,-7,2,-6,31,31,-17,-21,-18,-51.52308E+15,16,2,8,1,-10,-4,2,31,461.52308E+15,-7,-4,-18,-16,-5,-7,-1,3,-551.52308E+15,-5,0,1,-12,-31,-1,8,-14,-541.52308E+15,2,-12,-6,-13,-27,-13,-1,2,-681.52308E+15,5,-6,-5,17,47,-3,-14,21,621.52308E+15,9,50,14,1,4,3,-6,-21,541.52308E+15,-22,-37,-9,15,0,8,-1,-12,-581.52308E+15,0,5,4,-11,-6,-9,-1,9,-91.52308E+15,5,-10,-8,-2,-32,4,8,17,-181.52308E+15,-11,6,3,2,-8,-4,-7,-21,-401.52308E+15,6,-5,-3,13,24,7,0,-13,291.52308E+15,12,4,3,12,31,11,6,29,1081.52308E+15,-3,-5,-10,-34,-70,14,15,53,-401.52308E+15,-1,-4,17,32,74,-12,-10,-21,751.52308E+15,6,-3,-14,-19,-45,-13,-8,8,-881.52308E+15,-11,-6,6,-8,103,-34,-14,-28,81.52308E+15,14,10,-11,27,-35,84,41,9,1391.52308E+15,-13,-1,25,10,26,-5,-4,1,391.52308E+15,-3,-3,-9,-19,-59,-8,-8,-6,-1151.52308E+15,2,2,-9,11,-62,-7,-10,-5,-781.52308E+15,-4,-2,2,34,74,-8,-14,-8,741.52308E+15,0,2,-3,-9,-100,-30,-3,1,-1421.52308E+15,-1,-1,-13,-13,-76,4,-2,-5,-1071.52308E+15,9,-2,4,17,-21,5,12,9,331.52308E+15,-6,35,-5,7,57,7,-13,-11,711.52308E+15,-10,-23,-11,-9,-11,14,5,-12,-571.52308E+15,6,15,12,18,77,-5,-2,17,1381.52308E+15,0,-3,7,6,-42,15,3,8,-61.52308E+15,3,-17,-9,-38,-64,-19,12,5,-1271.52308E+15,-13,3,0,19,81,-13,-25,-29,231.52308E+15,3,-10,-18,6,-80,-1,15,7,-781.52308E+15,1,2,-5,-3,-71,-7,5,4,-741.52308E+15,-3,-5,1,-4,85,-15,-5,-8,461.52308E+15,1,-1,-8,-12,-52,18,-3,3,-541.52308E+15,-9,-6,2,13,20,-31,-18,-8,-371.52308E+15,-2,1,-12,0,33,96,28,-4,1401.52308E+15,3,-7,0,-34,-27,-11,-5,5,-761.52308E+15,3,-1,14,-29,0,-8,-2,8,-151.52308E+15,-6,3,5,-6,-11,-11,-9,-10,-451.52308E+15,4,3,6,-29,0,-55,2,3,-661.52308E+15,-2,-7,-8,-13,-63,5,14,-2,-761.52308E+15,-8,-14,-19,28,121,-24,-8,-7,691.52308E+15,0,-1,5,28,-17,25,3,0,431.52308E+15,0,5,-5,-20,-61,-37,-14,-4,-1361.52308E+15,8,6,1,-74,-104,-58,-11,6,-2261.52308E+15,2,4,8,24,-51,91,43,7,1281.52308E+15,1,-7,-13,-28,-34,-65,-8,-3,-1571.52308E+15,-3,11,-8,30,9,37,6,4,861.52308E+15,-5,-6,3,-16,-13,-76,-37,-14,-1641.52308E+15,-1,3,0,-25,-24,37,3,1,-61.52308E+15,2,5,7,-2,21,65,49,10,1571.52308E+15,5,-8,-6,-16,12,13,12,7,191.52308E+15,-5,-2,2,7,80,-19,-22,-10,311.52308E+15,-7,-7,-10,26,-12,-59,-23,-8,-1001.52308E+15,-2,2,13,1,60,12,-9,-5,721.52308E+15,4,0,6,23,-19,17,11,8,501.52308E+15,-6,-10,-10,45,70,12,-2,-9,901.52308E+15,-1,-6,-5,13,71,-11,-3,3,611.52308E+15,5,16,-5,-25,11,-12,-8,-6,-241.52308E+15,-11,-35,9,64,67,18,-4,-17,911.52308E+15,-3,14,3,23,-45,8,-1,0,-11.52308E+15,3,-5,-5,-14,-67,3,4,11,-701.52308E+15,1,4,-7,-14,17,-28,-5,1,-311.52308E+15,1,-1,5,-10,22,6,0,0,231.52308E+15,0,-6,8,39,4,48,17,-6,1041.52308E+15,-7,-2,-2,-4,16,-52,-16,-10,-771.52308E+15,-4,-6,2,23,-61,21,0,-2,-271.52308E+15,-9,-3,-6,0,-39,-11,-2,-23,-931.52308E+15,19,-5,7,24,72,10,1,31,1591.52308E+15,2,26,10,-50,-77,9,9,12,-591.52308E+15,-8,-10,-9,6,-12,-18,-16,-27,-941.52308E+15,6,7,2,-3,26,-11,-9,21,391.52308E+15,-9,3,29,-13,-55,-20,-7,-19,-911.52308E+15,9,-14,-12,-16,34,40,19,11,711.52308E+15,-10,-1,4,30,68,-16,-12,-7,561.52308E+15,-6,0,-16,-33,-63,-3,7,-13,-1271.52308E+15,-1,-8,-28,-13,-71,-31,-6,-6,-1641.52308E+15,-29,-5,10,17,-10,-21,-15,-66,-1191.52308E+15,11,7,4,6,58,5,-3,47,1351.52308E+15,20,1,-7,-28,43,-15,-13,-10,-91.52308E+15,35,7,-2,-23,-15,17,16,57,921.52308E+15,-9,-6,-1,-5,2,0,2,-4,-211.52308E+15,-15,-10,-11,45,14,-8,-13,-50,-481.52308E+15,-22,16,18,15,69,-6,-9,-21,601.52308E+15,-8,-5,-26,-25,-50,8,4,12,-901.52308E+15,14,5,-15,-22,3,-13,7,-1,-221.52308E+15,-4,-4,29,25,101,39,7,1,1941.52308E+15,0,1,14,10,-18,-5,1,16,191.52308E+15,-6,-10,6,6,19,8,-3,-24,-41.52308E+15,6,10,-14,-68,-119,-6,1,6,-1841.52308E+15,-32,-21,-5,22,-37,-18,-24,-105,-2201.52308E+15,25,17,-22,13,6,-14,-1,86,1101.52308E+15,31,12,-6,-65,-71,8,25,6,-601.52308E+15,10,5,3,32,101,13,-3,-43,1181.52308E+15,22,13,-1,-17,-52,4,12,13,-61.52308E+15,-34,-24,0,13,-13,-22,-35,-91,-2061.52308E+15,-18,2,14,23,35,56,20,-10,1221.52308E+15,-7,-8,-1,-13,7,-91,-21,33,-1011.52308E+15,-9,-9,10,10,-34,19,19,4,101.52308E+15,12,5,-20,-3,50,20,14,22,1001.52308E+15,-1,3,21,1,57,-9,-9,7,701.52308E+15,-12,-11,-4,41,68,-48,-25,-19,-101.52308E+15,7,-6,-23,-26,3,55,17,27,541.52308E+15,11,3,-12,-21,-47,-26,-9,8,-931.52308E+15,-14,7,24,12,15,-63,-33,-28,-801.52308E+15,4,4,13,-39,1,46,40,7,761.52308E+15,9,2,-21,-62,-62,-64,-13,19,-1921.52308E+15,-33,-15,5,18,41,37,18,-43,281.52308E+15,-19,-30,-57,45,29,-20,-33,-110,-1951.52308E+15,90,61,-22,25,-117,-12,5,103,1331.52308E+15,-12,0,70,-13,79,9,1,-60,741.52308E+15,-12,3,13,-16,-34,-27,4,-42,-1111.52308E+15,-37,13,-2,33,15,18,5,-49,-41.52308E+15,-23,-26,22,-16,-15,26,-1,-20,-531.52308E+15,1,2,-41,-3,-30,5,10,40,-161.52308E+15,-13,4,31,11,73,-100,-36,-11,-411.52308E+15,26,-4,-3,11,-54,114,91,46,2271.52308E+15,-16,-6,-24,-58,-70,-71,-39,-22,-3061.52308E+15,12,11,1,20,44,-27,-5,8,641.52308E+15,-4,-10,-2,-8,-27,-43,-17,-8,-1191.52308E+15,12,6,8,5,24,31,23,37,1461.52308E+15,-4,-14,0,7,110,66,14,1,1801.52308E+15,-12,0,5,-1,-91,-14,-8,-17,-1381.52308E+15,12,3,-15,-9,-28,-23,-6,20,-461.52308E+15,12,-8,-30,-6,-59,-31,-11,12,-1211.52308E+15,-14,2,49,67,105,121,48,-10,3681.52308E+15,-7,-1,10,-18,-72,-45,-17,0,-1501.52308E+15,15,-2,-19,-20,72,23,1,5,751.52308E+15,-16,-3,8,-15,-37,-32,-28,-13,-1361.52308E+15,-18,-16,-19,13,9,-13,-6,-21,-711.52308E+15,14,4,-25,6,127,39,8,17,1901.52308E+15,18,6,37,-3,-128,7,21,22,-201.52308E+15,-17,-11,-6,4,27,-28,-20,-19,-701.52308E+15,-15,-7,-7,27,-12,-8,-17,-17,-561.52308E+15,11,5,4,1,-61,11,5,5,-191.52308E+15,13,9,-16,-7,-30,-40,12,8,-511.52308E+15,-3,0,15,16,127,77,-1,-2,2291.52308E+15,6,-1,10,8,-66,-42,-9,-1,-951.52308E+15,-11,-11,-23,-15,-89,50,12,4,-831.52308E+15,-6,-2,-5,-7,104,0,-3,-5,761.52308E+15,6,1,0,-9,-122,-51,-3,8,-1701.52308E+15,-8,-12,-17,12,-7,-49,-15,-8,-1041.52308E+15,2,6,11,13,104,0,0,2,1381.52308E+15,-1,-1,6,-21,-106,77,12,-5,-391.52308E+15,-2,-3,4,9,127,-38,-13,-1,831.52308E+15,1,-1,-11,-22,-116,-10,-3,-1,-1631.52308E+15,-1,-2,-12,-1,-38,-31,-8,-3,-961.52308E+15,2,-1,-2,6,-28,7,-1,0,-171.52308E+15,-3,9,2,-13,-11,43,1,1,291.52308E+15,0,-5,-3,12,-96,-9,14,2,-851.52308E+15,3,15,21,20,51,-21,-14,-10,651.52308E+15,14,-10,-17,-11,-101,57,38,20,-101.52308E+15,-15,-10,-4,-14,-80,-91,-30,-13,-2571.52308E+15,3,-1,3,2,-42,65,9,8,471.52308E+15,11,4,0,-30,75,-20,11,4,551.52308E+15,-3,2,-1,-6,-14,-8,-14,-15,-591.52308E+15,-1,0,3,-3,-35,-21,1,0,-561.52308E+15,7,2,-4,-36,-17,-17,-4,3,-661.52308E+15,-10,-27,-2,21,-44,22,3,4,-331.52308E+15,7,12,0,32,70,-19,1,14,1171.52308E+15,-27,9,0,-36,-87,-51,-17,-24,-2331.52308E+15,16,5,-8,-20,101,8,-5,-8,891.52308E+15,-9,7,4,-9,13,25,-3,-10,181.52308E+15,-15,-28,-2,26,-52,19,13,10,-291.52308E+15,19,-30,-21,-39,-20,-18,5,18,-861.52308E+15,5,29,-24,38,30,-16,-6,3,591.52308E+15,5,1,0,-31,-128,-10,-7,0,-1701.52308E+15,-2,13,64,41,31,31,-5,-10,1631.52308E+15,-7,-10,12,11,78,27,10,4,1251.52308E+15,-10,-15,2,-4,53,-7,3,-5,171.52308E+15,7,7,-42,-18,1,-34,-18,2,-951.52308E+15,-5,-8,-14,-3,45,20,20,3,581.52308E+15,13,7,9,-4,-13,15,19,6,521.52308E+15,-9,-4,6,45,23,-21,-17,-10,131.52308E+15,4,1,4,14,-29,12,11,11,281.52308E+15,-6,0,-19,-53,7,-8,-17,-10,-1061.52308E+15,7,1,-14,-19,-33,7,-3,5,-491.52308E+15,-5,-8,-7,-1,-120,-9,-1,-1,-1521.52308E+15,-6,-3,17,-3,29,-8,1,1,281.52308E+15,1,-15,-4,36,-44,-22,-24,-12,-841.52308E+15,0,-4,-19,10,98,21,10,7,1231.52308E+15,6,7,13,13,-5,16,-23,-1,261.52308E+15,-5,-6,-16,-30,-19,-25,37,-2,-661.52308E+15,8,16,-2,-24,17,-2,-10,2,51.52308E+15,-2,-4,8,16,-47,2,-4,-2,-331.52308E+15,7,-7,36,-34,-19,-40,-20,-17,-941.52308E+15,-19,7,-4,38,80,92,25,1,2201.52308E+15,-1,-1,-9,-23,-38,-22,1,-2,-951.52308E+15,2,3,-8,2,28,-2,-11,-3,111.52308E+15,-11,-15,-29,-5,-85,-22,7,-3,-1631.52308E+15,15,2,7,-21,10,1,11,12,371.52308E+15,-10,-3,0,32,32,-11,-5,-5,301.52308E+15,-5,1,2,-14,6,-6,-13,-8,-371.52308E+15,-1,4,0,-20,-38,-58,-30,-1,-1441.52308E+15,3,-5,4,21,12,75,45,2,1571.52308E+15,-2,1,-21,-26,-48,-35,-13,-3,-1471.52308E+15,4,8,18,6,20,-18,-8,-7,231.52308E+15,-4,-5,5,-12,-27,-4,1,3,-431.52308E+15,8,-6,-2,14,-37,-22,-29,-4,-781.52308E+15,-9,-6,-14,-12,72,33,20,-7,771.52308E+15,-6,7,16,39,-31,0,-9,-8,81.52308E+15,-4,-9,2,9,127,56,25,3,2091.52308E+15,22,9,-6,-36,-67,-60,-39,-36,-2131.52308E+15,5,24,4,-19,50,60,32,4,1601.52308E+15,-62,-22,16,57,32,4,-15,-42,-321.52308E+15,26,-39,-53,-10,15,8,13,-17,-571.52308E+15,-4,58,22,-19,-66,-37,-5,95,441.52308E+15,-7,-12,24,-3,96,-15,-12,-17,541.52308E+15,10,12,-2,-39,-128,2,12,9,-1241.52308E+15,-33,-16,-24,56,74,36,0,-91,21.52308E+15,34,-62,-22,-8,23,-10,-16,-1,-621.52308E+15,16,34,20,-20,-72,-29,-1,51,-11.52308E+15,3,13,5,-20,12,15,9,0,371.52308E+15,-5,-2,-6,-64,-1,-33,4,10,-971.52308E+15,-32,-14,-4,63,26,-8,-19,-58,-461.52308E+15,-12,-20,-20,8,5,-3,-10,-10,-621.52308E+15,15,-9,4,3,85,-6,-1,8,991.52308E+15,-5,24,34,16,37,28,4,11,1491.52308E+15,-16,-6,-30,-63,-76,-45,-12,-11,-2591.52308E+15,4,-23,3,38,92,1,-10,-22,831.52308E+15,18,3,-30,-44,-114,-2,15,37,-1171.52308E+15,-40,17,23,6,28,7,-4,-15,221.52308E+15,2,-22,2,10,42,10,-5,-64,-251.52308E+15,51,23,0,-4,10,-15,7,84,1561.52308E+15,-1,7,13,19,29,0,-14,-17,361.52308E+15,21,-8,-31,-31,-79,21,30,41,-361.52308E+15,-25,7,0,8,35,-5,-7,-22,-91.52308E+15,-26,-23,-2,18,-58,-17,-13,-65,-1861.52308E+15,12,-11,-10,16,54,5,0,8,741.52308E+15,6,38,42,46,-26,5,-1,22,1321.52308E+15,-6,3,10,46,57,4,-3,-13,981.52308E+15,1,-3,-23,14,-73,-3,3,6,-781.52308E+15,-3,-3,-31,-15,-63,-10,-3,7,-1211.52308E+15,-1,-24,-59,16,18,6,3,-3,-441.52308E+15,23,12,49,-15,-28,-23,-1,17,341.52308E+15,-21,12,53,-19,23,13,0,2,631.52308E+15,-2,-17,-14,-24,6,29,10,-8,-201.52308E+15,3,4,-12,-33,36,-20,-5,-9,-361.52308E+15,-8,1,-19,35,-29,-16,-22,11,-471.52308E+15,5,-9,-33,8,-11,0,19,4,-171.52308E+15,3,6,19,-2,25,-8,0,-10,331.52308E+15,10,18,37,17,4,-9,-3,20,941.52308E+15,-4,1,-4,15,115,13,3,13,1521.52308E+15,-11,-13,-7,-6,-92,-22,-17,-25,-1931.52308E+15,2,15,-20,31,-66,13,3,4,-181.52308E+15,4,-16,11,16,113,13,6,13,1601.52308E+15,-9,-12,-13,-58,-81,-3,-4,-1,-1811.52308E+15,-4,1,1,-49,-107,-23,-7,-15,-2031.52308E+15,-4,-9,-2,30,75,-7,-4,-2,771.52308E+15,3,3,6,3,-6,7,2,4,221.52308E+15,10,28,8,-9,13,17,15,8,901.52308E+15,-21,-67,-23,-26,72,13,0,-7,-591.52308E+15,-2,3,4,-13,-42,-11,-5,-2,-681.52308E+15,3,-6,-6,12,-25,-6,0,10,-181.52308E+15,-11,-15,-10,11,37,-2,-2,-6,21.52308E+15,15,24,6,6,-13,9,0,-5,421.52308E+15,-13,7,13,36,22,-13,-9,-23,201.52308E+15,7,0,13,1,-26,0,-3,6,-21.52308E+15,5,0,-6,-9,-21,6,15,12,21.52308E+15,-1,7,-8,-11,4,-2,-7,1,-171.52308E+15,-1,-6,4,-74,-20,-4,-2,-8,-1111.52308E+15,-3,-2,-14,-126,-38,-2,-4,-5,-1941.52308E+15,3,3,-2,-102,27,0,8,10,-531.52308E+15,-6,-5,33,22,68,-5,-10,-14,831.52308E+15,14,13,4,-15,-38,26,14,20,381.52308E+15,-6,-16,-19,21,-38,5,-9,-5,-671.52308E+15,-5,4,11,67,51,-45,-25,-10,481.52308E+15,7,-6,-27,59,14,41,37,9,1341.52308E+15,1,-1,-22,41,-57,-39,-9,-1,-871.52308E+15,-5,6,10,22,-5,12,1,1,421.52308E+15,-10,-20,-23,-19,0,5,2,0,-651.52308E+15,-12,-10,11,-14,62,-41,-26,-45,-751.52308E+15,18,69,44,-37,-5,18,7,-55,591.52308E+15,48,12,-4,30,-16,-18,4,91,1471.52308E+15,-9,-5,12,20,39,6,-2,-37,241.52308E+15,0,-1,-27,7,-38,22,4,0,-331.52308E+15,-21,-34,-20,13,-4,-5,-1,-14,-861.52308E+15,-18,-6,12,-9,-3,-11,-9,-40,-841.52308E+15,8,8,-20,11,-27,5,4,16,51.52308E+15,5,17,34,-12,-11,12,5,20,701.52308E+15,0,-17,-8,-34,31,-7,-4,5,-341.52308E+15,0,11,11,-57,24,5,5,-8,-91.52308E+15,-3,-13,-9,48,-119,2,2,11,-811.52308E+15,-7,0,-37,-4,21,-26,-15,-19,-871.52308E+15,2,0,-1,44,42,11,7,23,1281.52308E+15,2,17,46,1,-32,2,7,-4,391.52308E+15,-6,-3,1,8,52,15,0,-7,601.52308E+15,4,9,-8,-5,16,-10,-6,7,71.52308E+15,2,-15,-30,-8,7,14,3,13,-141.52308E+15,-4,-6,-16,-18,-14,2,5,-11,-621.52308E+15,-4,-17,-2,78,-34,-16,-8,-9,-121.52308E+15,9,20,16,-4,-15,0,2,9,371.52308E+15,15,-1,36,5,34,6,4,20,1191.52308E+15,-56,-9,-2,-9,-13,-8,-2,-25,-1241.52308E+15,27,16,-2,-67,-2,0,-10,2,-361.52308E+15,-13,-28,-23,29,11,-13,-11,-19,-671.52308E+15,7,-12,-29,11,5,11,10,10,131.52308E+15,15,3,15,8,3,0,0,-5,391.52308E+15,-13,0,10,1,2,-9,4,11,61.52308E+15,-19,12,22,-34,-28,-1,-18,-5,-711.52308E+15,75,-3,4,7,0,2,7,21,1131.52308E+15,-108,-12,-26,1,0,-2,-4,-29,-1801.52308E+15,59,13,3,-19,6,-3,-3,-8,481.52308E+15,17,11,0,-27,-7,16,23,18,511.52308E+15,-7,-1,3,23,-4,-18,3,0,-11.52308E+15,15,-9,-22,24,16,9,-18,-4,111.52308E+15,-26,-1,20,-6,-31,3,-12,-11,-641.52308E+15,9,6,5,-1,20,5,4,2,501.52308E+15,-16,-6,-13,-12,0,1,7,-5,-441.52308E+15,21,-10,-15,-12,-7,-8,5,6,-201.52308E+15,-11,9,9,-27,-15,-2,9,16,-121.52308E+15,5,-1,3,47,1,3,-5,-6,471.52308E+15,-29,-4,-2,-31,12,-11,-15,-13,-931.52308E+15,11,0,-8,10,9,-16,1,-17,-101.52308E+15,8,-5,7,34,-16,40,7,6,811.52308E+15,-21,6,-11,-10,-12,-23,10,14,-471.52308E+15,-76,-10,-1,-39,-10,-13,-38,-34,-2211.52308E+15,49,13,11,-5,13,1,-8,-1,731.52308E+15,-12,-10,-19,-9,-7,-10,6,10,-511.52308E+15,22,-2,-10,-26,-2,3,6,3,-61.52308E+15,-8,5,7,-19,-12,2,4,3,-181.52308E+15,-8,-12,6,46,3,-13,-8,-2,121.52308E+15,47,4,-9,56,3,-9,-7,17,1021.52308E+15,-100,-18,7,-14,15,28,23,-6,-651.52308E+15,91,23,27,-32,-6,-13,-21,-13,561.52308E+15,2,10,-10,-51,16,6,3,-5,-291.52308E+15,-6,-1,-1,-2,-1,-8,1,-9,-271.52308E+15,24,-12,-16,21,-35,-8,-12,9,-291.52308E+15,-24,-7,-3,11,13,-9,9,21,111.52308E+15,-7,5,-8,22,2,18,5,-1,361.52308E+15,-6,6,-1,-45,25,8,5,-2,-101.52308E+15,-6,5,28,-2,-24,5,-5,-5,-41.52308E+15,-5,-8,-7,0,5,-10,-4,-8,-371.52308E+15,15,2,-12,-72,-2,4,8,8,-491.52308E+15,-33,-16,23,42,109,3,-6,-14,1081.52308E+15,22,-4,-12,-71,-89,-14,-5,1,-1721.52308E+15,12,12,-3,-35,8,3,4,-1,01.52308E+15,0,8,-10,7,-67,-22,-7,-2,-931.52308E+15,-14,-7,-8,-26,-8,0,-2,-5,-701.52308E+15,10,2,4,-23,85,21,8,-2,1051.52308E+15,-10,-9,-6,28,-64,-21,-9,-16,-1071.52308E+15,4,-12,5,13,-2,3,3,22,361.52308E+15,-12,-5,2,-40,-26,-19,1,-23,-1221.52308E+15,5,11,6,44,22,-10,-11,-34,331.52308E+15,5,3,-1,-2,9,15,8,50,871.52308E+15,0,-9,-5,3,21,7,9,4,301.52308E+15,8,-4,0,21,-9,6,0,37,591.52308E+15,1,1,-16,-31,-3,-2,-7,-11,-681.52308E+15,-22,-11,-5,59,8,5,3,-35,21.52308E+15,-2,8,14,72,-10,-9,-11,-15,471.52308E+15,1,-2,-9,18,-12,7,6,1,101.52308E+15,1,4,11,-32,-25,2,-4,-3,-461.52308E+15,-3,2,-2,-21,6,-9,-4,7,-241.52308E+15,6,-1,5,-32,71,3,-3,1,501.52308E+15,-6,4,-19,-16,-19,3,3,-5,-551.52308E+15,6,0,-10,25,-6,-10,-2,10,131.52308E+15,2,0,4,-47,13,8,6,3,-111.52308E+15,-4,-1,3,59,-14,-3,-7,-5,281.52308E+15,0,-8,-4,22,30,15,6,-10,511.52308E+15,3,4,-3,-14,1,-6,0,12,-31.52308E+15,-4,3,3,-1,-2,2,-2,0,-11.52308E+15,-2,-5,-11,-32,-10,0,2,-1,-591.52308E+15,-3,5,12,0,-15,-16,-4,0,-211.52308E+15,4,-5,-2,-33,1,-2,-8,-3,-481.52308E+15,-6,-10,-11,46,-80,11,3,-8,-551.52308E+15,-6,12,1,8,96,-6,-4,-3,981.52308E+15,-33,-7,-2,-17,-116,-24,-6,-60,-2651.52308E+15,17,-7,-4,14,1,2,-4,-11,81.52308E+15,25,8,-8,-48,3,6,12,44,421.52308E+15,-1,-10,-4,-2,-19,6,-4,-31,-651.52308E+15,3,7,-1,65,18,6,2,3,1031.52308E+15,-22,-4,-1,-12,20,-8,-8,-37,-721.52308E+15,-6,-31,-14,27,7,3,0,-14,-281.52308E+15,7,13,25,-65,-2,3,4,24,91.52308E+15,3,-17,-2,-86,15,5,-2,-5,-891.52308E+15,0,-22,-23,16,-34,-6,5,16,-481.52308E+15,-2,27,-6,-6,32,1,-2,11,551.52308E+15,-4,-4,9,-32,-27,1,1,1,-551.52308E+15,7,4,5,5,-5,-5,-2,4,131.52308E+15,3,14,14,38,16,5,2,10,1021.52308E+15,-6,-14,2,7,17,-1,2,-1,61.52308E+15,-11,-8,-5,-5,-37,-10,-7,-20,-1031.52308E+15,-17,11,-6,-13,13,5,0,-17,-241.52308E+15,14,-12,5,19,11,1,-2,-31,51.52308E+15,34,25,-7,-32,-68,7,18,77,541.52308E+15,-12,-6,-1,36,85,-9,-8,-28,571.52308E+15,-19,-5,-1,-3,-16,-6,-9,-46,-1051.52308E+15,15,-1,7,17,-97,2,-2,-15,-741.52308E+15,-13,-20,24,38,75,3,-2,23,1281.52308E+15,44,30,-30,-16,-36,0,15,81,881.52308E+15,10,6,-10,-21,-11,-3,1,79,511.52308E+15,-23,-5,-12,-24,28,13,4,-37,-561.52308E+15,-18,2,9,4,-38,-11,-13,-71,-1361.52308E+15,-11,-19,3,20,-2,3,-6,-28,-401.52308E+15,-6,-1,-1,-9,41,3,-5,-24,-21.52308E+15,4,20,6,-2,-18,-11,-3,19,151.52308E+15,-6,-5,-1,-8,30,2,-1,-12,-11.52308E+15,-7,-7,-4,8,-16,-1,2,-13,-381.52308E+15,13,11,12,-9,-26,4,0,8,131.52308E+15,2,-8,-9,-12,16,-56,-24,19,-721.52308E+15,-6,-2,-8,6,20,83,24,-7,1101.52308E+15,-2,-3,2,-1,76,-7,1,-4,621.52308E+15,16,5,7,14,-61,-4,0,8,-151.52308E+15,-7,-1,-6,-8,-46,3,3,21,-411.52308E+15,-10,-1,0,-11,-3,-37,-21,-27,-1101.52308E+15,2,1,1,0,12,21,1,-3,351.52308E+15,8,6,7,-14,-45,1,12,12,-131.52308E+15,-5,3,-11,9,71,16,0,4,871.52308E+15,-1,-9,9,84,-104,-44,-12,-12,-891.52308E+15,-1,-6,-3,17,-48,15,5,3,-181.52308E+15,-1,-1,-3,-37,-21,-5,-2,1,-691.52308E+15,-1,8,16,32,94,40,9,6,2041.52308E+15,9,6,-1,6,-67,-20,3,-2,-661.52308E+15,-6,-9,6,16,-42,-5,-4,-1,-451.52308E+15,0,3,0,-40,8,-1,-4,-3,-371.52308E+15,3,5,-3,-28,-11,15,7,10,-21.52308E+15,-4,-2,0,-15,46,1,0,-8,181.52308E+15,0,-3,-1,11,-19,-9,-3,-3,-271.52308E+15,0,-3,-13,0,30,12,2,0,281.52308E+15,5,0,4,6,-24,-6,1,6,-81.52308E+15,-7,0,-4,-4,11,-13,-8,-6,-311.52308E+15,-1,0,-2,-24,-83,-7,-3,-6,-1261.52308E+15,2,-3,1,2,56,6,3,1,681.52308E+15,0,-6,-1,26,9,-5,0,3,261.52308E+15,1,-3,1,-9,10,1,-4,-3,-61.52308E+15,-8,32,2,11,-53,1,2,-1,-141.52308E+15,-2,-11,15,15,-7,21,0,0,311.52308E+15,5,-15,-1,-8,-45,-29,1,4,-881.52308E+15,-32,3,-41,-45,-22,11,-1,-39,-1661.52308E+15,31,11,28,50,10,-5,-5,2,1221.52308E+15,0,7,-8,-8,-7,-3,3,42,261.52308E+15,-6,4,-1,-19,1,-1,-3,-6,-311.52308E+15,4,-4,-1,-17,28,3,0,2,151.52308E+15,-17,-18,-17,-18,-17,-4,-2,-29,-1221.52308E+15,-3,-2,-6,13,37,-20,-7,-16,-41.52308E+15,7,4,2,-8,-13,12,4,10,181.52308E+15,-1,-5,1,-6,21,-2,0,-3,51.52308E+15,-3,-5,-5,-10,6,-4,-1,6,-161.52308E+15,2,-1,2,0,-1,-1,-3,-3,-51.52308E+15,-10,1,5,15,-5,-11,-9,-6,-201.52308E+15,10,-3,-5,5,13,12,14,11,571.52308E+15,-2,-4,5,-12,16,3,1,6,131.52308E+15,2,-3,-12,-30,-19,-16,-7,-3,-881.52308E+15,-6,2,-4,7,-50,-2,-2,-11,-661.52308E+15,3,3,7,5,27,-4,-4,3,401.52308E+15,0,-4,-8,-15,-3,3,0,7,-201.52308E+15,-4,-5,11,35,18,2,2,-10,491.52308E+15,-3,3,1,-11,-16,-4,-2,-3,-351.52308E+15,7,3,9,-5,9,1,-1,8,311.52308E+15,-3,-4,-6,-5,14,3,-1,0,-21.52308E+15,0,-2,-14,6,-11,-1,2,-6,-261.52308E+15,-3,-2,-6,6,-8,0,-4,1,-161.52308E+15,7,-3,-8,-9,2,-5,4,11,-11.52308E+15,-7,-4,-5,-3,3,-5,-7,-9,-371.52308E+15,-1,6,8,3,-8,3,4,-3,121.52308E+15,5,-2,-1,-7,14,11,6,8,341.52308E+15,-4,1,6,-6,-2,-9,-6,-6,-261.52308E+15,3,-1,-6,-14,-6,-3,-4,2,-291.52308E+15,0,-3,-4,10,1,2,0,-1,51.52308E+15,-1,0,2,0,12,-2,1,-4,81.52308E+15,-4,1,4,4,-5,4,-3,-3,-21.52308E+15,-1,-6,-1,-7,-12,-6,-2,4,-311.52308E+15,-3,-1,-2,3,12,-6,-8,-5,-101.52308E+15,-3,0,-5,1,18,-15,-1,1,-41.52308E+15,-1,2,6,4,7,50,21,1,901.52308E+15,3,-4,-5,-8,-12,6,9,6,-51.52308E+15,-4,0,-2,-6,-3,-12,-7,-5,-391.52308E+15,-1,-2,-7,-7,-1,-38,-19,3,-721.52308E+15,0,4,8,26,11,62,31,2,1441.52308E+15,-2,-1,3,6,35,-7,-3,-3,281.52308E+15,-15,-4,1,6,3,4,-6,-31,-421.52308E+15,-5,-2,-6,-5,1,-6,0,-38,-611.52308E+15,27,5,-1,-7,-9,-25,-8,61,431.52308E+15,-2,-3,-3,-13,-14,10,4,-5,-261.52308E+15,-1,-4,-3,1,2,-1,1,-14,-191.52308E+15,6,8,3,7,11,2,0,37,741.52308E+15,-13,-7,-13,-12,-22,-17,-13,-36,-1331.52308E+15,1,-3,-2,4,3,-6,-4,3,-41.52308E+15,-2,1,-3,-24,-6,-4,2,-7,-431.52308E+15,-3,-1,2,-5,-6,14,8,-5,41.52308E+15,-1,-3,-1,-26,-3,-14,-7,4,-511.52308E+15,-2,1,1,27,-15,-9,-2,7,81.52308E+15,-2,-2,-4,8,4,-19,-17,-2,-341.52308E+15,4,1,-1,-14,-2,58,30,10,861.52308E+15,1,1,1,-17,6,-28,-16,0,-521.52308E+15,-7,-3,-5,-1,3,-10,-3,-18,-441.52308E+15,0,-5,-4,42,8,18,0,7,661.52308E+15,7,-3,-4,-16,-8,-10,-5,13,-261.52308E+15,-8,-3,-2,-8,-21,-18,-10,-17,-871.52308E+15,-2,4,8,-14,-16,-2,-2,-3,-271.52308E+15,7,0,-6,-9,-8,0,4,18,61.52308E+15,2,-5,-5,9,13,6,6,6,321.52308E+15,-7,-2,0,8,0,-1,-1,-13,-161.52308E+15,2,1,0,1,0,-6,-3,1,-41.52308E+15,1,2,2,-6,-2,-2,0,8,31.52308E+15,-9,1,4,10,-11,-32,-16,-20,-731.52308E+15,5,-2,1,11,26,36,10,5,921.52308E+15,4,3,-1,-16,-11,18,12,5,141.52308E+15,1,-1,2,-4,3,-6,1,1,-31.52308E+15,-3,-1,0,-1,-9,-7,-5,-5,-311.52308E+15,-7,2,0,7,-18,-31,-14,-10,-711.52308E+15,-3,1,2,-7,-3,-4,-8,-2,-241.52308E+15,5,-2,-2,10,16,18,16,7,681.52308E+15,0,-3,-5,4,-12,6,-7,0,-171.52308E+15,-1,-1,-3,1,17,-31,-9,1,-261.52308E+15,-2,-2,-2,-13,-15,-18,-4,-4,-601.52308E+15,-2,4,9,32,3,63,25,5,1391.52308E+15,1,-4,0,-26,-27,-86,-22,0,-1641.52308E+15,1,1,6,25,62,39,25,3,1621.52308E+15,-3,0,-6,-21,26,-20,-1,-1,-261.52308E+15,-3,-1,0,-1,-11,-30,-24,-7,-771.52308E+15,2,-2,-2,24,-2,16,17,4,571.52308E+15,-4,-2,-1,-1,-32,3,-8,-6,-511.52308E+15,-6,-5,-4,22,1,-105,-35,-8,-1401.52308E+15,6,7,7,14,-53,73,39,11,1041.52308E+15,-3,-3,-3,6,89,62,28,-1,1751.52308E+15,-1,-1,-2,-14,-2,-54,-9,-3,-861.52308E+15,3,2,2,3,-13,14,6,6,231.52308E+15,-3,-4,-8,-23,-20,-86,-35,-6,-1851.52308E+15,-3,-3,-2,13,-19,27,-6,-4,31.52308E+15,-2,1,2,9,-43,-16,5,-1,-451.52308E+15,-2,-2,-1,2,53,35,-5,-3,771.52308E+15,4,0,-7,-24,-15,9,10,7,-161.52308E+15,-2,2,2,-3,-4,-9,-5,-3,-221.52308E+15,-2,-2,-1,21,2,-5,-9,-3,11.52308E+15,1,1,2,-4,-24,8,1,-2,-171.52308E+15,0,-4,2,6,28,-4,-2,-1,251.52308E+15,-2,1,1,5,-8,8,2,0,71.52308E+15,-5,0,-4,-25,-11,-27,-20,-10,-1021.52308E+15,8,-4,-4,29,13,37,18,11,1081.52308E+15,0,0,-1,-18,36,-1,-1,1,161.52308E+15,-5,-7,-17,-6,-97,-41,-18,-8,-1991.52308E+15,1,1,2,-14,5,14,5,0,141.52308E+15,-2,5,6,2,-2,7,5,0,211.52308E+15,-2,-2,8,0,41,-17,-6,0,221.52308E+15,-1,3,4,8,22,0,-3,-4,291.52308E+15,3,-1,-7,-15,-8,6,2,4,-161.52308E+15,1,-3,-4,-17,-20,21,5,1,-161.52308E+15,1,1,-5,0,-10,-18,-2,-1,-341.52308E+15,-2,0,1,4,5,-5,-4,-3,-41.52308E+15,-3,-2,-1,-2,-8,5,-1,-2,-141.52308E+15,-4,-4,1,0,2,-14,-8,-5,-321.52308E+15,-2,-2,-7,-26,-1,0,-3,-2,-431.52308E+15,6,-1,-2,-3,10,11,8,6,351.52308E+15,-3,-1,2,-1,6,-6,-5,-4,-121.52308E+15,-5,-4,-3,16,11,7,3,-11,141.52308E+15,-3,-5,-7,-15,-34,-12,-6,1,-811.52308E+15,1,6,-2,-7,9,4,2,2,151.52308E+15,-2,0,5,10,-1,-2,-1,-1,81.52308E+15,-4,3,9,7,2,2,-1,-23,-51.52308E+15,-11,-3,1,7,2,3,-1,-51,-531.52308E+15,14,3,0,-5,12,-9,4,84,1031.52308E+15,20,-4,-16,-8,-53,3,9,10,-391.52308E+15,10,4,3,8,33,3,4,14,791.52308E+15,-6,-1,-6,-21,-26,-8,-3,-9,-801.52308E+15,-13,-2,4,19,8,-5,-11,-50,-501.52308E+15,-9,1,10,-4,-2,1,-5,-7,-151.52308E+15,-5,-4,-1,5,-9,-2,-1,9,-81.52308E+15,2,2,4,33,14,0,-3,-2,501.52308E+15,3,7,17,12,1,2,6,-1,471.52308E+15,-2,-3,-19,-73,2,5,-2,4,-881.52308E+15,1,-2,19,28,2,-5,1,-8,361.52308E+15,0,-3,-25,-51,14,-5,-4,11,-631.52308E+15,-2,-11,-20,-64,-9,-3,-6,-10,-1251.52308E+15,-5,-4,-20,-21,36,-27,-9,-9,-591.52308E+15,1,-5,-8,-6,6,48,17,6,591.52308E+15,2,1,2,19,21,13,10,10,781.52308E+15,-1,-1,2,19,-19,15,3,-7,111.52308E+15,-4,2,10,30,-8,-11,-7,-10,21.52308E+15,-5,0,-7,-5,-13,-23,-8,-2,-631.52308E+15,5,-2,3,-19,-11,-7,1,9,-211.52308E+15,-4,0,8,23,14,-2,-5,-17,171.52308E+15,0,-4,2,16,4,16,6,4,441.52308E+15,-1,-6,-21,-22,-6,-7,-8,3,-681.52308E+15,2,0,-2,-17,2,6,2,6,-11.52308E+15,-3,0,-1,-23,2,-12,-3,-9,-491.52308E+15,-1,-1,-4,-7,-8,-1,-2,-2,-261.52308E+15,-1,0,-9,-22,4,-14,-6,2,-461.52308E+15,-1,0,-2,8,4,-9,0,-5,-51.52308E+15,-6,1,9,31,-21,-6,-10,-11,-131.52308E+15,7,-6,-1,44,21,10,17,13,1051.52308E+15,1,4,3,-15,-5,1,6,0,-51.52308E+15,-2,2,8,16,9,-10,-7,1,171.52308E+15,1,2,0,-37,0,-40,-9,-2,-851.52308E+15,-6,-6,0,35,-23,77,12,-5,841.52308E+15,-4,-4,-6,-25,-6,-24,-9,-5,-831.52308E+15,1,-3,-3,7,-6,8,-1,5,81.52308E+15,2,5,4,-44,33,-5,-2,0,-71.52308E+15,-3,6,9,-15,16,-17,-11,-9,-241.52308E+15,-2,-11,-8,15,-4,17,18,6,311.52308E+15,-1,-1,-1,15,-5,-5,-4,1,-11.52308E+15,4,-2,-4,9,0,14,11,5,371.52308E+15,-1,6,17,4,-12,-13,-5,-1,-51.52308E+15,-2,1,1,10,4,0,-4,-5,51.52308E+15,-3,-1,-3,-15,-17,-25,-15,-7,-861.52308E+15,-4,-9,-14,10,1,14,1,-1,-21.52308E+15,1,0,-5,10,-1,2,12,3,221.52308E+15,0,0,4,-12,-1,-5,-3,-1,-181.52308E+15,0,0,-3,-2,0,9,4,-8,01.52308E+15,-6,-2,-2,7,1,-3,-8,5,-81.52308E+15,2,2,1,-6,6,-13,-8,6,-101.52308E+15,-2,0,-7,0,0,7,4,-2,01.52308E+15,-1,3,13,12,-1,-1,-4,2,231.52308E+15,-2,-1,-1,6,-12,4,0,-9,-151.52308E+15,-2,-6,-7,-12,6,-11,-3,-3,-381.52308E+15,2,2,-2,4,-10,-1,-3,1,-71.52308E+15,-2,0,-1,16,-1,3,4,-2,171.52308E+15,-7,-1,2,-5,3,1,2,-7,-121.52308E+15,11,1,3,-2,2,-7,-4,-11,-71.52308E+15,-18,-9,-18,0,0,5,4,-33,-691.52308E+15,9,-3,8,-1,-3,-1,1,43,531.52308E+15,22,12,10,-16,6,8,11,24,771.52308E+15,-6,-2,-5,-7,3,-9,-7,-4,-371.52308E+15,2,10,13,-8,-4,-8,-6,10,91.52308E+15,-13,-10,-15,26,2,7,-1,-32,-361.52308E+15,-8,-9,-15,-9,-10,-12,-3,-5,-711.52308E+15,-4,1,-3,-12,-45,-3,-10,-17,-931.52308E+15,6,4,19,17,81,21,14,5,1671.52308E+15,-2,1,0,-32,-27,-9,-2,8,-631.52308E+15,-2,0,0,9,-4,-7,-14,-9,-271.52308E+15,3,-5,-13,-15,11,10,13,13,171.52308E+15,-2,1,1,-4,-26,-14,-10,2,-521.52308E+15,2,2,4,11,11,12,5,4,511.52308E+15,-1,-1,-13,9,-8,-9,-6,-12,-411.52308E+15,-6,1,2,8,1,-3,0,0,31.52308E+15,2,2,6,7,-13,-5,-12,9,-41.52308E+15,2,0,1,4,2,3,9,-4,171.52308E+15,-4,-1,2,-2,-4,5,2,-4,-61.52308E+15,0,-2,-5,15,22,3,-1,11,431.52308E+15,3,-3,-5,0,-9,15,19,-5,151.52308E+15,2,6,-3,-13,-15,-13,11,5,-201.52308E+15,4,-1,-7,-39,3,3,-9,4,-421.52308E+15,-4,-2,15,24,0,-5,-1,3,301.52308E+15,-1,-1,-1,8,-23,-22,-19,-8,-671.52308E+15,-5,-5,-1,-7,6,-15,-53,-15,-951.52308E+15,-4,-3,-9,-39,13,26,54,-21,171.52308E+15,-19,-2,-1,28,0,2,-18,6,-41.52308E+15,21,-1,-8,-23,-22,11,38,-18,-21.52308E+15,-3,3,0,-13,16,-3,-11,69,581.52308E+15,4,5,1,26,5,-2,-12,-8,191.52308E+15,-5,-2,-3,-49,-5,-14,-12,-19,-1091.52308E+15,-18,-1,-1,17,-3,-10,-16,-20,-521.52308E+15,-2,-5,4,16,-5,-1,4,-22,-111.52308E+15,-4,-7,-15,6,-2,0,-5,11,-161.52308E+15,2,5,6,-16,-2,5,14,0,141.52308E+15,-1,1,25,-6,-3,-20,-14,12,-61.52308E+15,3,-2,-7,24,-23,2,-2,-14,-191.52308E+15,-1,-3,11,26,38,16,10,18,1151.52308E+15,6,-2,-21,-17,-31,14,6,-4,-491.52308E+15,3,-2,-11,-30,0,-5,1,17,-271.52308E+15,-1,-2,5,-9,1,-12,-6,-9,-331.52308E+15,-3,-2,12,5,-17,-24,-6,-6,-411.52308E+15,3,0,-4,-6,-23,-7,-5,0,-421.52308E+15,-2,-1,-6,21,45,38,12,9,1161.52308E+15,-3,1,-9,-24,-18,-7,6,-7,-611.52308E+15,1,-1,3,-21,4,4,-4,1,-131.52308E+15,3,2,8,12,6,-19,-5,0,71.52308E+15,0,-1,-1,34,-23,0,-10,0,-11.52308E+15,-3,-5,-2,-29,29,4,5,-6,-71.52308E+15,-26,-7,1,7,-18,3,-3,9,-341.52308E+15,22,12,6,-4,-13,2,1,25,511.52308E+15,0,-4,-14,-57,-8,-7,0,-41,-1311.52308E+15,-7,-1,-8,22,5,9,8,60,881.52308E+15,8,0,10,-1,-8,-6,-7,-8,-121.52308E+15,-6,-10,4,-17,15,-3,-2,-12,-311.52308E+15,-6,1,-6,-10,6,-10,-7,-2,-341.52308E+15,4,-3,2,32,-7,11,10,-24,251.52308E+15,-1,-3,-7,11,8,0,-5,-9,-61.52308E+15,0,-2,-8,14,17,2,8,13,441.52308E+15,4,4,10,5,-4,-2,-2,5,201.52308E+15,-5,1,4,-7,-15,-27,-7,-16,-721.52308E+15,1,5,-4,1,-17,3,-7,-1,-191.52308E+15,2,-1,-2,0,37,28,18,-6,761.52308E+15,-4,-3,-6,-6,-5,-17,-8,7,-421.52308E+15,0,-2,-5,-28,-4,-2,1,0,-401.52308E+15,0,5,10,37,-5,-11,-2,-6,281.52308E+15,-9,-5,2,1,-9,-10,-8,-7,-451.52308E+15,-10,-2,-1,-1,-4,8,1,-9,-181.52308E+15,22,0,-2,3,7,-4,-2,28,521.52308E+15,2,1,-12,-1,4,5,2,-5,-41.52308E+15,-3,-1,11,-5,-3,-3,-3,-5,-121.52308E+15,-5,-1,2,-4,-2,-3,-2,7,-81.52308E+15,-8,-6,-6,-11,-1,8,2,-24,-461.52308E+15,5,-2,-19,-36,-2,2,4,12,-361.52308E+15,2,-2,14,31,9,1,1,5,611.52308E+15,-6,0,21,4,-17,-11,-12,-10,-311.52308E+15,-1,4,9,-1,3,7,3,-11,131.52308E+15,3,-1,-5,0,1,4,2,5,91.52308E+15,-7,-1,-16,-10,2,-24,-9,-8,-731.52308E+15,8,-1,-6,6,-12,24,7,13,391.52308E+15,-2,-3,-3,0,6,-3,-1,-8,-141.52308E+15,0,-3,-5,1,-3,-6,-1,-1,-181.52308E+15,-4,1,-4,5,1,-2,-3,-5,-111.52308E+15,-2,-3,0,1,1,-6,-8,7,-101.52308E+15,-2,0,-7,-10,2,9,3,-7,-121.52308E+15,-3,-5,-1,6,0,2,1,-2,-21.52308E+15,1,2,5,11,-15,-4,-2,-2,-41.52308E+15,0,-3,-6,-10,10,-5,-1,7,-81.52308E+15,-6,0,5,7,-1,2,3,-12,-21.52308E+15,3,16,17,-6,-1,-14,-6,-7,21.52308E+15,11,-9,-4,-2,-31,12,4,16,-31.52308E+15,-2,-9,-19,2,43,5,4,4,281.52308E+15,2,-4,-21,-8,-10,-6,-6,-6,-591.52308E+15,-5,0,28,17,-6,1,4,1,401.52308E+15,-6,4,11,0,0,-4,-3,-10,-81.52308E+15,-2,0,-11,-26,-18,-5,-6,0,-681.52308E+15,1,1,3,4,11,5,4,4,331.52308E+15,-1,-3,-15,11,-5,-5,-3,-1,-221.52308E+15,-3,-1,0,2,4,-1,-1,-6,-61.52308E+15,3,-11,1,7,7,6,6,7,261.52308E+15,-2,10,0,7,3,-1,-2,-7,81.52308E+15,0,-3,-5,-18,-8,2,-1,2,-311.52308E+15,-3,-3,4,-10,-3,3,3,-1,-101.52308E+15,-6,2,1,9,10,-7,-4,-16,-111.52308E+15,-2,-6,-6,-2,1,-1,0,-23,-391.52308E+15,16,4,7,16,1,2,4,85,1351.52308E+15,-3,0,-10,-12,0,-9,-3,-9,-461.52308E+15,-3,3,-7,-10,-16,-1,2,7,-251.52308E+15,-4,-2,6,10,-3,8,3,-17,11.52308E+15,-6,-3,-4,-10,28,-10,-9,-28,-421.52308E+15,0,-1,-5,13,3,-1,3,8,201.52308E+15,3,5,5,4,-13,1,0,0,51.52308E+15,-1,0,4,1,8,13,7,6,381.52308E+15,-1,-3,-2,-6,-10,5,0,-10,-271.52308E+15,-1,-1,-8,-17,8,2,-7,2,-221.52308E+15,-2,0,2,-9,-14,-17,-15,-13,-681.52308E+15,1,-2,-1,-4,-2,-1,-6,7,-81.52308E+15,-4,-2,-5,-4,3,6,19,-5,81.52308E+15,-1,0,-3,2,6,-7,-12,-8,-231.52308E+15,-10,-2,-3,-1,-2,7,5,4,-21.52308E+15,5,-4,0,0,0,-7,-16,2,-201.52308E+15,-2,-5,-8,-8,-1,-3,4,-18,-411.52308E+15,7,2,-1,-6,6,5,-9,8,121.52308E+15,5,2,2,-7,-5,8,43,9,571.52308E+15,-1,0,1,-12,-3,-12,-14,2,-391.52308E+15,-4,-3,-1,3,-1,0,-5,-9,-201.52308E+15,-5,-4,-3,-7,-6,-13,-15,-6,-591.52308E+15,-2,-3,-9,4,6,-15,-26,-9,-541.52308E+15,0,-2,0,10,3,21,16,10,581.52308E+15,-5,1,3,-1,-5,9,24,-14,121.52308E+15,-8,-3,-4,-10,3,-1,-4,9,-181.52308E+15,3,0,0,-6,-2,1,-7,6,-51.52308E+15,-3,0,3,-4,-20,-21,6,-5,-441.52308E+15,-3,-2,-6,8,17,-31,-26,-5,-481.52308E+15,0,1,-4,3,-20,59,19,-4,541.52308E+15,2,0,4,10,1,-13,-9,-1,-61.52308E+15,6,1,0,4,-24,15,-12,-13,-231.52308E+15,-14,-2,0,-2,28,-8,10,10,221.52308E+15,1,0,-3,1,-6,-21,37,-3,61.52308E+15,0,-3,-5,-8,-14,-1,-22,-1,-541.52308E+15,0,2,5,-12,-7,1,0,0,-111.52308E+15,3,-1,0,10,3,2,-22,-8,-131.52308E+15,0,-2,-5,7,19,0,-1,-4,141.52308E+15,-3,-1,-6,-2,6,9,8,2,131.52308E+15,-3,-2,-8,-9,-2,-12,0,3,-331.52308E+15,4,3,10,-12,-19,3,-7,-5,-231.52308E+15,-4,-3,-3,24,32,-3,-5,0,381.52308E+15,5,3,5,9,-14,1,7,1,171.52308E+15,-3,1,-3,7,8,-4,-2,4,81.52308E+15,6,-9,-13,-5,-15,6,4,3,-231.52308E+15,-6,-10,-4,-19,-12,-6,-3,-5,-651.52308E+15,-6,0,7,6,2,-1,-2,1,71.52308E+15,0,-2,1,9,7,0,5,3,231.52308E+15,0,-6,-21,-6,-4,7,0,0,-301.52308E+15,-3,-3,20,15,-4,-11,-7,-12,-51.52308E+15,-34,6,14,8,0,-2,-1,-12,-211.52308E+15,13,-36,-22,-8,5,-5,-3,4,-521.52308E+15,7,17,6,-13,-3,5,5,38,621.52308E+15,1,3,-5,-5,-1,-7,-11,-9,-341.52308E+15,-2,-28,-6,-10,0,5,7,-30,-641.52308E+15,-3,20,21,-14,6,0,3,45,781.52308E+15,-2,2,-12,-20,3,0,-7,-13,-491.52308E+15,7,-4,-24,-10,2,-3,0,5,-271.52308E+15,7,9,12,-3,7,-1,-1,0,301.52308E+15,-9,4,1,11,1,-1,3,-32,-221.52308E+15,12,-24,30,63,-13,-1,-2,17,821.52308E+15,-9,56,-20,-47,-4,0,1,2,-211.52308E+15,6,-12,-18,19,-4,-3,-1,-10,-231.52308E+15,-1,6,-27,-19,1,1,3,0,-361.52308E+15,-7,6,2,-23,3,1,-3,-11,-321.52308E+15,8,-10,48,-4,4,2,-1,-3,441.52308E+15,4,-6,-22,-35,5,-2,-4,8,-521.52308E+15,3,4,-4,-12,5,-2,1,7,21.52308E+15,-7,-8,-13,-14,5,-2,-1,-18,-581.52308E+15,-5,-12,3,34,-3,0,0,-3,141.52308E+15,8,7,-5,15,-27,-7,-3,9,-31.52308E+15,-8,-7,1,-24,-2,-13,-2,-4,-591.52308E+15,-6,-1,-4,32,5,10,-5,-18,131.52308E+15,4,-5,9,45,-21,3,5,6,461.52308E+15,6,12,21,41,27,-1,4,12,1221.52308E+15,-5,2,14,49,-13,-1,-2,-11,331.52308E+15,-1,1,2,30,-7,-20,-6,1,01.52308E+15,3,3,-9,8,-3,49,15,6,721.52308E+15,5,5,17,43,-31,-11,-4,7,311.52308E+15,0,2,9,43,18,3,11,1,871.52308E+15,0,0,3,-22,-12,-30,-8,-2,-711.52308E+15,1,-6,-27,-32,-21,-16,-5,2,-1041.52308E+15,-1,4,3,-33,28,61,9,-3,681.52308E+15,1,-6,-3,-32,-20,-7,0,8,-591.52308E+15,-6,-9,-26,-21,-11,-23,-17,-8,-1211.52308E+15,1,1,11,-11,15,7,9,-3,301.52308E+15,1,-1,-19,-20,-1,-56,-10,3,-1031.52308E+15,0,3,6,7,29,35,-6,-3,711.52308E+15,-1,-2,-19,-24,11,2,14,6,-131.52308E+15,-4,-4,-3,4,-7,-31,-16,-6,-671.52308E+15,4,-6,-9,-1,-26,1,5,0,-321.52308E+15,-15,-1,-6,-7,-15,-22,-12,3,-751.52308E+15,-5,0,18,3,10,7,-21,-15,-31.52308E+15,3,-2,6,-13,39,28,-2,3,621.52308E+15,1,0,-3,-15,-10,-6,41,7,151.52308E+15,-3,-8,-16,31,5,-15,-14,-6,-261.52308E+15,-4,-7,8,1,-54,19,3,-5,-391.52308E+15,8,7,1,20,62,-15,-18,-10,551.52308E+15,-14,0,-19,-38,-22,10,4,15,-641.52308E+15,1,-5,-18,-73,4,2,-1,-11,-1011.52308E+15,7,3,20,71,11,-20,-10,6,881.52308E+15,-6,2,15,16,-4,24,48,20,1151.52308E+15,-16,-21,30,-6,-6,4,-37,-36,-881.52308E+15,36,43,75,30,13,40,39,5,2811.52308E+15,6,11,-15,-30,40,-51,-20,15,-441.52308E+15,-11,-3,-10,26,-9,6,26,36,611.52308E+15,-15,-17,-40,-10,-22,-15,-39,-26,-1841.52308E+15,-21,-17,-32,12,-13,-47,-11,-7,-1361.52308E+15,12,15,40,-37,52,60,6,-4,1441.52308E+15,10,-6,-33,-3,-52,-36,14,12,-941.52308E+15,1,11,19,23,59,1,7,9,1301.52308E+15,-2,-8,-3,-40,-34,0,-14,-18,-1191.52308E+15,-7,-14,-31,2,-9,-15,19,15,-401.52308E+15,-3,-33,-68,-50,-35,-19,-57,-36,-3011.52308E+15,3,18,24,1,22,27,2,24,1211.52308E+15,16,1,24,-5,61,-44,-8,-13,321.52308E+15,1,4,6,-12,-39,127,65,2,1541.52308E+15,-1,12,44,-6,-36,-8,3,-8,01.52308E+15,-16,-15,-25,-6,-24,-86,-35,-5,-2121.52308E+15,-18,-11,-23,14,-10,48,1,-3,-21.52308E+15,-3,-4,-37,-50,-31,-45,1,-4,-1731.52308E+15,5,6,40,30,20,-11,-11,-4,751.52308E+15,2,-6,-16,25,16,39,12,-6,661.52308E+15,-4,1,-12,-14,-52,-35,-9,5,-1201.52308E+15,-11,-4,-2,15,19,-14,-12,15,61.52308E+15,-2,-8,-7,-23,-4,15,17,-4,-161.52308E+15,30,28,24,7,1,2,10,16,1181.52308E+15,5,-8,-22,-4,13,29,-19,-12,-181.52308E+15,-4,3,35,18,0,-20,-1,-9,221.52308E+15,-14,-8,-23,-15,7,-14,-18,-12,-971.52308E+15,-7,-12,25,18,12,19,10,-11,541.52308E+15,16,18,30,9,3,9,28,27,1401.52308E+15,7,-7,-51,6,50,-34,-7,2,-341.52308E+15,-2,0,4,-3,-5,2,-33,-20,-571.52308E+15,0,-2,34,46,15,79,-5,-16,1511.52308E+15,-8,-3,-19,-28,-72,-9,4,1,-1341.52308E+15,-1,-3,15,-23,-18,-5,-9,-11,-551.52308E+15,-5,0,-8,5,64,-16,-16,11,351.52308E+15,2,-4,-43,-1,11,20,78,6,691.52308E+15,4,14,58,21,-24,19,-48,-6,381.52308E+15,-15,-15,-25,33,14,-17,-18,-11,-541.52308E+15,-3,-12,-10,22,-12,-27,-10,-2,-541.52308E+15,-6,5,5,2,-10,-23,-49,-13,-891.52308E+15,6,11,32,51,30,-23,31,15,1531.52308E+15,-7,-2,-4,44,-42,-18,-10,-59,-981.52308E+15,15,5,19,10,4,4,-11,-2,441.52308E+15,5,-5,-19,15,-18,-16,9,72,431.52308E+15,-11,-10,-39,21,18,-1,-4,-1,-271.52308E+15,4,19,57,6,-33,10,-16,-11,361.52308E+15,-16,-10,-10,-2,18,-3,2,-28,-491.52308E+15,11,10,9,39,-34,12,33,14,941.52308E+15,2,2,4,48,-9,-8,-14,-4,211.52308E+15,2,5,4,40,-11,9,9,11,691.52308E+15,-3,13,26,111,-13,13,13,5,1651.52308E+15,6,0,1,-76,9,-35,-21,-3,-1191.52308E+15,-2,-11,-30,-105,10,5,5,6,-1221.52308E+15,-1,-12,-43,-106,37,15,2,1,-1071.52308E+15,-4,-19,-59,-128,26,0,-3,9,-1781.52308E+15,9,13,24,-125,22,-10,-14,-12,-931.52308E+15,-16,-17,-56,-89,39,-2,-3,-21,-1651.52308E+15,-2,-6,-17,-10,21,5,4,-3,-81.52308E+15,-6,6,-4,-11,-7,3,6,4,-91.52308E+15,9,-7,-21,-7,-4,-12,-6,-17,-651.52308E+15,-14,0,-2,-13,6,3,8,-2,-141.52308E+15,3,-1,-28,-43,-14,-6,9,34,-461.52308E+15,3,-1,32,100,-24,5,8,26,1491.52308E+15,0,-7,18,10,4,0,8,-7,261.52308E+15,-3,8,9,-27,-4,-24,1,5,-351.52308E+15,8,1,-13,-69,-6,25,-4,-41,-991.52308E+15,-33,-9,-11,-113,-3,-8,5,-41,-2131.52308E+15,19,-11,-34,-19,5,4,0,95,591.52308E+15,-15,-8,10,-38,-3,-6,18,10,-321.52308E+15,28,15,19,6,-1,7,3,16,931.52308E+15,13,25,7,-52,13,16,10,-19,131.52308E+15,-7,5,40,97,-19,-23,-32,-59,21.52308E+15,-33,-9,0,108,-13,1,-1,-5,481.52308E+15,4,-1,12,24,-10,-2,-3,15,391.52308E+15,-6,6,27,38,-15,8,20,18,961.52308E+15,18,-2,-38,-43,-8,7,30,-1,-371.52308E+15,26,13,17,50,-10,-9,-14,-6,671.52308E+15,-35,-8,34,108,-7,-2,8,3,1011.52308E+15,5,-22,-11,79,-14,2,-16,-1,221.52308E+15,-17,15,5,17,-11,-9,-10,-16,-261.52308E+15,32,22,42,61,5,-2,-17,-9,1341.52308E+15,-7,7,5,1,3,-3,3,27,361.52308E+15,12,-6,-18,-29,-2,-19,49,24,111.52308E+15,-12,-17,-25,-40,5,12,-13,-14,-1041.52308E+15,-12,-13,-19,-57,2,20,-1,-3,-831.52308E+15,10,3,2,-28,4,-7,-20,-5,-411.52308E+15,0,-2,-19,-48,1,-7,-11,0,-861.52308E+15,-12,6,16,44,4,3,1,-11,511.52308E+15,13,-2,-16,-23,5,-3,6,12,-81.52308E+15,2,-4,1,-15,-2,-3,6,-21,-361.52308E+15,4,13,5,22,-4,15,-1,12,661.52308E+15,-2,1,-9,-43,7,-6,-7,-10,-691.52308E+15,2,-7,-11,8,9,8,8,4,211.52308E+15,-6,-15,-29,-5,-1,-7,-2,-6,-711.52308E+15,-6,-2,15,-48,2,-3,-8,-4,-541.52308E+15,11,6,-19,-24,4,-5,-10,-5,-421.52308E+15,-14,-14,-16,-27,4,-2,-4,-7,-801.52308E+15,-2,7,8,-28,3,4,9,4,51.52308E+15,7,-4,-10,6,3,5,-6,-9,-81.52308E+15,-12,-8,-4,1,-5,-4,2,9,-211.52308E+15,15,10,4,60,-5,-5,2,23,1041.52308E+15,4,8,24,7,-5,2,2,-9,331.52308E+15,-1,-7,-3,14,-10,-2,-6,1,-141.52308E+15,-17,-7,-18,15,-6,-10,-8,-34,-851.52308E+15,-25,-10,45,-6,-4,7,4,-88,-771.52308E+15,65,51,12,27,-4,6,14,98,2691.52308E+15,-2,-3,-2,19,-2,-1,0,47,561.52308E+15,0,-1,0,5,-4,-3,-4,-35,-421.52308E+15,-9,-17,-22,10,-2,2,0,9,-291.52308E+15,-26,-6,8,26,-13,-3,-8,-51,-731.52308E+15,7,15,26,-9,-6,-3,-8,-9,131.52308E+15,8,4,-1,-10,2,1,6,23,331.52308E+15,-2,2,-8,4,3,0,-3,3,-11.52308E+15,-9,-23,-14,-12,5,1,2,-10,-601.52308E+15,4,5,3,-15,0,-2,-6,1,-101.52308E+15,-5,-4,9,1,-2,-2,-2,-5,-101.52308E+15,9,3,0,-60,1,2,3,9,-331.52308E+15,-7,-11,-13,-2,1,-4,-4,0,-401.52308E+15,-3,-4,-8,-3,0,-4,-9,-13,-441.52308E+15,-3,1,0,10,-1,-18,-3,2,-121.52308E+15,4,-5,-6,5,-5,3,0,12,81.52308E+15,-2,2,7,-10,14,3,5,1,201.52308E+15,-1,6,3,-59,4,-12,-12,-17,-881.52308E+15,1,-2,10,65,-3,0,-2,5,741.52308E+15,7,7,-7,10,-12,-36,3,15,-131.52308E+15,-15,-13,2,-1,-10,27,-19,-17,-461.52308E+15,4,0,0,13,6,-4,26,0,451.52308E+15,-3,-4,-10,-37,15,-42,-14,4,-911.52308E+15,0,3,-5,-5,8,13,-5,1,101.52308E+15,-1,-3,7,15,-10,-6,-2,-8,-81.52308E+15,-5,-6,-13,7,2,-3,-13,-8,-391.52308E+15,0,2,1,-14,-3,12,-3,0,-51.52308E+15,-1,-1,-3,1,-2,3,2,-1,-21.52308E+15,0,-4,4,-7,0,-13,-1,-1,-221.52308E+15,-1,-2,-7,15,0,87,13,2,1071.52308E+15,4,5,2,-23,-13,21,33,4,331.52308E+15,-4,-5,-11,11,22,-19,-13,1,-181.52308E+15,0,-6,13,0,-44,-13,-10,-3,-631.52308E+15,-3,-3,1,27,-2,-27,-8,-5,-201.52308E+15,-7,4,12,4,4,-66,-35,-9,-931.52308E+15,1,-1,18,-12,0,111,7,0,1241.52308E+15,4,-4,-21,4,19,-16,40,18,441.52308E+15,2,-3,-10,4,4,-27,43,3,161.52308E+15,-5,-5,-1,-29,-25,25,-30,-8,-781.52308E+15,12,12,-4,-7,16,30,37,13,1091.52308E+15,-9,-2,0,-3,12,-83,-30,-21,-1361.52308E+15,-2,4,0,-42,-41,27,-22,-6,-821.52308E+15,0,-1,-7,63,39,22,13,0,1291.52308E+15,-7,-11,5,35,-32,-67,-20,-4,-1011.52308E+15,-9,-11,-34,-37,11,52,2,-6,-321.52308E+15,12,14,47,11,19,-40,-3,10,701.52308E+15,-6,-5,-12,-11,-1,-19,-12,-7,-731.52308E+15,-6,-2,-5,-5,-13,17,-3,1,-161.52308E+15,4,2,1,2,-5,8,16,1,291.52308E+15,-2,-5,-8,7,9,-10,-22,-6,-371.52308E+15,3,0,0,-10,-9,41,17,11,531.52308E+15,-2,-3,-7,-7,0,-1,13,-1,-81.52308E+15,4,6,4,-6,14,-7,-7,0,81.52308E+15,-5,-1,-9,-10,-6,-8,-10,-3,-521.52308E+15,2,-1,6,8,-9,12,5,-1,221.52308E+15,-2,-3,-13,-39,2,-28,-4,0,-871.52308E+15,0,3,0,6,2,6,-7,-2,81.52308E+15,1,-1,10,3,0,17,2,1,331.52308E+15,0,1,-3,-12,-1,-13,7,3,-181.52308E+15,-3,-1,1,5,2,-9,-6,-1,-121.52308E+15,-6,-5,-4,9,-3,19,-12,-8,-101.52308E+15,-3,-7,-7,-4,-9,21,13,-1,31.52308E+15,2,4,0,-19,4,0,11,3,51.52308E+15,-4,-13,-30,17,5,-83,-27,-6,-1411.52308E+15,5,29,72,-1,-20,77,0,-3,1591.52308E+15,0,-2,-5,4,-3,-38,-2,-1,-471.52308E+15,-6,-7,-2,19,20,-13,-6,-2,31.52308E+15,5,4,1,-7,-15,15,6,3,121.52308E+15,-5,-9,-27,9,9,-39,-4,1,-651.52308E+15,-1,-1,3,12,0,10,-3,-2,181.52308E+15,-5,-1,-6,-12,-16,18,-6,-14,-421.52308E+15,6,9,7,1,-5,-15,-8,6,11.52308E+15,6,-9,-16,-6,-10,4,10,-12,-331.52308E+15,-22,4,16,10,7,27,2,14,581.52308E+15,22,0,3,0,-4,-7,8,46,681.52308E+15,6,7,5,2,12,2,-7,-8,191.52308E+15,-2,-3,-20,-9,8,-17,-1,2,-421.52308E+15,-9,-12,-15,-23,-39,4,0,-19,-1131.52308E+15,-14,-6,-4,-1,2,-23,-10,-30,-861.52308E+15,3,3,10,10,23,5,7,11,721.52308E+15,0,-4,0,-11,-8,55,3,7,421.52308E+15,6,0,-11,-10,9,-17,3,-23,-431.52308E+15,-17,-6,-9,14,3,-22,-2,27,-121.52308E+15,-3,2,15,-5,0,10,-7,-11,11.52308E+15,-9,-9,-19,-8,5,-39,-14,-4,-971.52308E+15,3,3,7,-10,3,15,-5,-1,151.52308E+15,2,7,7,-13,-2,9,7,-9,81.52308E+15,8,-1,-3,-16,-13,-4,6,5,-181.52308E+15,-7,0,-5,-3,-9,-18,0,3,-391.52308E+15,3,-8,-2,9,4,2,-12,2,-21.52308E+15,-4,2,-6,-11,-7,-4,-1,-3,-341.52308E+15,-4,4,-3,1,9,10,2,-10,91.52308E+15,-6,-2,7,11,4,-5,-4,-20,-151.52308E+15,-1,-7,-13,0,-11,-17,-7,-52,-1081.52308E+15,0,11,10,-13,7,15,12,78,1201.52308E+15,-7,-10,-5,-15,-1,2,-1,31,-61.52308E+15,11,0,-8,-4,5,5,8,18,351.52308E+15,-1,3,17,-5,9,-12,-10,-10,-91.52308E+15,-2,-4,-3,17,-2,6,0,-45,-331.52308E+15,-8,0,4,9,-12,10,-3,-24,-241.52308E+15,0,1,4,-7,-7,-12,-6,-10,-371.52308E+15,-8,-7,-12,7,1,-14,-8,42,11.52308E+15,-3,-2,2,18,-5,22,12,-14,301.52308E+15,-10,-8,-11,7,16,-27,-9,6,-361.52308E+15,11,14,19,-2,-2,25,11,-3,731.52308E+15,16,18,6,1,-5,-10,5,8,391.52308E+15,3,-6,-11,6,-11,-15,-16,-19,-691.52308E+15,-6,-14,-31,-5,-11,0,-5,-2,-741.52308E+15,3,1,-21,16,4,-32,-16,-1,-461.52308E+15,-1,2,33,13,3,3,1,12,661.52308E+15,11,20,35,-26,3,9,9,1,621.52308E+15,0,-1,20,-17,8,-4,-3,-14,-111.52308E+15,-10,-6,-12,26,-7,5,1,-8,-111.52308E+15,-4,-9,-24,-6,8,11,0,-9,-331.52308E+15,-32,-17,-34,-5,-6,-1,4,-2,-931.52308E+15,30,11,26,18,-3,9,3,46,1401.52308E+15,21,21,9,-40,10,2,4,13,401.52308E+15,-14,-2,-11,-34,5,-4,-10,-11,-811.52308E+15,-4,-11,6,3,21,1,-7,-16,-71.52308E+15,-6,-5,-16,-2,-2,13,12,-11,-171.52308E+15,-10,-7,-2,-28,4,-7,1,6,-431.52308E+15,3,-11,-16,-7,-38,-15,-4,1,-871.52308E+15,11,8,-3,-2,-4,3,-11,-9,-71.52308E+15,0,6,1,-17,3,11,1,-8,-31.52308E+15,1,-7,7,-2,19,-10,24,9,411.52308E+15,-2,7,1,-3,26,11,-3,-4,331.52308E+15,-25,-12,-17,-6,-31,-4,-24,-43,-1621.52308E+15,-12,-7,-17,-33,13,-15,-58,-114,-2431.52308E+15,34,-5,-1,2,-11,5,39,89,1521.52308E+15,6,27,-17,-42,-12,14,63,45,841.52308E+15,17,13,-3,-30,17,8,-19,13,161.52308E+15,-17,-1,2,1,-10,5,-21,-44,-851.52308E+15,-21,-4,9,16,-1,-22,-49,-65,-1371.52308E+15,3,-16,-27,54,4,-8,42,13,651.52308E+15,-3,-3,50,85,22,-102,-10,-4,351.52308E+15,18,24,68,21,-18,97,23,22,2551.52308E+15,-6,-4,-1,4,-35,-87,-6,-1,-1361.52308E+15,-3,-2,7,7,-24,-61,-61,-5,-1421.52308E+15,0,-14,-20,10,2,-26,22,8,-181.52308E+15,-6,-14,-24,31,36,-34,7,41,371.52308E+15,5,6,9,-6,3,14,36,11,781.52308E+15,11,2,0,-40,5,6,-28,-18,-621.52308E+15,4,-7,-43,0,-18,93,-3,-2,241.52308E+15,7,11,29,37,-4,-38,-9,17,501.52308E+15,-8,-10,-21,33,-4,19,-7,-15,-131.52308E+15,-10,-4,-4,15,7,-33,-22,-6,-571.52308E+15,15,4,6,-49,5,7,10,5,31.52308E+15,-6,-3,-12,-21,-6,12,28,20,121.52308E+15,-16,-16,-17,-41,-4,-3,-14,-14,-1251.52308E+15,66,-1,23,3,18,14,6,0,1291.52308E+15,-59,0,25,-34,-7,16,3,-3,-591.52308E+15,29,6,-19,-28,-6,-6,13,29,181.52308E+15,-7,-4,-4,-14,4,-4,-23,-20,-721.52308E+15,1,-4,-12,25,8,19,0,-4,331.52308E+15,1,-11,-18,30,-4,8,18,10,341.52308E+15,-28,-14,6,-8,-17,-32,-9,-21,-1231.52308E+15,-4,19,18,-9,-1,19,-7,50,851.52308E+15,-21,-9,9,9,-17,9,-5,0,-251.52308E+15,18,12,5,-8,9,-16,-7,-8,51.52308E+15,-17,-14,-30,-30,-5,-8,0,-3,-1071.52308E+15,2,-10,-47,5,-3,16,2,-7,-421.52308E+15,-17,0,46,34,0,-8,1,-5,511.52308E+15,12,4,10,-30,7,9,9,22,431.52308E+15,13,-6,-23,-21,-4,3,4,-8,-421.52308E+15,-4,-1,13,104,0,7,0,-1,1181.52308E+15,16,-9,-14,3,2,-6,-9,-25,-421.52308E+15,-68,0,14,-16,-3,-7,-5,-19,-1041.52308E+15,70,18,-29,-56,3,4,13,5,281.52308E+15,-33,-9,2,-47,7,0,-6,-13,-991.52308E+15,1,-15,-39,-84,0,-2,-11,-17,-1671.52308E+15,11,-12,30,29,3,1,3,7,721.52308E+15,-16,22,21,7,-5,5,3,28,651.52308E+15,-2,-9,-19,-29,3,-8,-8,-18,-901.52308E+15,-7,6,9,7,4,10,5,5,391.52308E+15,17,-5,-28,-28,-6,0,9,-11,-521.52308E+15,-49,-7,2,9,1,-7,-11,34,-281.52308E+15,48,2,24,7,0,1,-3,-8,711.52308E+15,-28,6,-2,-24,2,5,4,-1,-381.52308E+15,19,6,-9,6,1,-1,3,0,251.52308E+15,-2,-12,-18,20,-8,-4,-4,-20,-481.52308E+15,-11,-5,9,5,-7,0,-3,-6,-181.52308E+15,-9,5,18,18,-2,8,10,8,561.52308E+15,16,0,-9,10,-9,-22,-7,2,-191.52308E+15,-6,-6,6,34,8,-26,-11,-15,-161.52308E+15,-4,10,11,4,-26,77,32,9,1131.52308E+15,5,2,-9,7,11,7,0,2,251.52308E+15,12,0,0,27,-14,15,4,3,471.52308E+15,-15,7,15,20,4,19,19,3,721.52308E+15,6,0,1,-14,7,-35,-13,-7,-551.52308E+15,-6,-2,-5,16,2,-30,-7,-2,-341.52308E+15,12,7,15,35,9,69,12,2,1611.52308E+15,2,-10,-16,-6,-7,-9,1,0,-451.52308E+15,21,0,-8,-21,-11,-4,-3,-2,-281.52308E+15,-20,6,14,16,2,-14,4,6,141.52308E+15,-1,-2,-7,-18,6,-24,-19,-5,-701.52308E+15,-8,-5,-3,-8,-1,21,6,-14,-121.52308E+15,7,3,4,23,13,-2,3,8,591.52308E+15,0,-1,-4,11,-10,-14,-8,4,-221.52308E+15,-2,2,4,-17,-1,8,0,-3,-91.52308E+15,22,5,3,0,-1,-6,-4,-7,121.52308E+15,-15,1,6,6,4,-38,-29,-2,-671.52308E+15,4,-1,-3,-7,-5,20,23,3,341.52308E+15,-2,-8,-18,-18,-1,-34,-2,4,-791.52308E+15,7,-1,5,3,-36,33,10,5,261.52308E+15,-22,2,-2,-11,13,26,3,-7,21.52308E+15,6,-2,-13,-17,3,-14,-14,0,-511.52308E+15,7,-1,-5,-7,-8,-27,-24,-9,-741.52308E+15,-8,-1,3,3,-1,-39,-4,-8,-551.52308E+15,-2,-4,-6,-5,4,-23,-14,6,-441.52308E+15,2,0,-3,5,11,37,34,-3,831.52308E+15,-2,-4,-9,-1,5,16,23,13,411.52308E+15,1,8,22,-13,-3,-8,-11,-6,-101.52308E+15,-8,-5,-6,-12,2,-13,-11,-9,-621.52308E+15,4,3,-2,-5,0,25,-9,-1,151.52308E+15,0,-2,-3,-11,-4,-4,-7,-7,-381.52308E+15,-8,-5,-15,3,5,-5,-4,0,-291.52308E+15,0,1,8,3,4,-10,1,-2,51.52308E+15,0,-1,-2,2,-10,-6,-9,0,-261.52308E+15,1,0,-3,-7,4,-16,1,3,-171.52308E+15,-4,-7,-9,-8,-22,-5,6,1,-481.52308E+15,0,-3,-1,-4,8,-35,3,-1,-331.52308E+15,-2,-2,-4,0,10,23,-25,-2,-21.52308E+15,-4,0,-3,6,-41,-8,21,-8,-371.52308E+15,5,6,12,-2,21,4,-41,9,141.52308E+15,0,-1,-1,9,-10,19,61,1,781.52308E+15,-2,-3,-5,-3,1,-12,2,3,-191.52308E+15,5,2,0,-10,4,-15,-34,-3,-511.52308E+15,-2,-3,2,5,9,-9,0,-7,-51.52308E+15,-4,-1,-5,1,-10,4,-21,-2,-381.52308E+15,-7,-9,-23,-5,-4,1,-2,-3,-521.52308E+15,5,12,26,-14,10,1,3,1,441.52308E+15,1,-3,-2,2,6,2,5,0,111.52308E+15,1,2,0,-9,8,15,-4,-6,71.52308E+15,-3,-7,-3,-12,-7,-11,9,-3,-371.52308E+15,-4,-6,-17,5,-3,-6,-7,1,-371.52308E+15,-4,-2,5,12,0,11,13,-3,321.52308E+15,7,8,7,-5,4,6,2,12,411.52308E+15,1,1,0,-1,1,-11,-3,-4,-161.52308E+15,-9,-4,-2,23,-12,1,-3,-15,-211.52308E+15,8,5,3,5,4,3,6,18,521.52308E+15,-53,-6,-5,9,-8,-2,-15,-105,-1851.52308E+15,64,7,3,19,-4,-9,1,39,1201.52308E+15,6,4,8,-1,4,9,7,2,391.52308E+15,-14,-6,-4,-9,2,2,10,15,-41.52308E+15,-2,-5,-5,9,4,2,-2,3,41.52308E+15,-32,-5,7,13,-3,4,3,-54,-671.52308E+15,-1,-6,-17,0,-5,-14,-14,-17,-741.52308E+15,6,-1,0,9,-6,7,0,12,271.52308E+15,-7,-7,1,2,-9,2,-3,0,-211.52308E+15,-9,-3,-7,-8,-19,-35,-28,-8,-1171.52308E+15,15,5,4,-1,13,72,34,26,1681.52308E+15,0,4,-1,9,7,-18,-7,-15,-211.52308E+15,6,2,-2,1,0,-4,-7,6,21.52308E+15,-4,2,2,4,-4,-3,7,7,111.52308E+15,-2,1,3,-18,-2,-34,-25,-65,-1421.52308E+15,-34,-22,-27,-36,-33,2,-5,-13,-1681.52308E+15,38,2,-6,6,-4,11,25,108,1801.52308E+15,8,18,32,2,26,4,6,3,991.52308E+15,-8,-5,-7,-1,2,-52,-20,10,-811.52308E+15,-3,0,3,-5,11,84,4,-36,581.52308E+15,2,-4,-13,-55,5,4,17,-10,-541.52308E+15,-13,-9,-19,-50,12,9,11,2,-571.52308E+15,-10,-4,-8,-28,20,-8,-16,-21,-751.52308E+15,23,6,-3,-17,15,-27,14,18,291.52308E+15,-12,-7,-10,-2,29,-54,-24,-10,-901.52308E+15,-1,-1,-12,1,-46,58,-3,-22,-261.52308E+15,7,5,7,-5,-1,-12,6,15,221.52308E+15,-2,-3,-4,8,-6,-35,-6,-1,-491.52308E+15,-7,1,5,15,-17,9,0,-6,01.52308E+15,3,-3,-1,-7,16,-37,-9,-9,-471.52308E+15,-10,-7,5,-8,0,7,-2,-15,-301.52308E+15,2,-1,0,9,-16,1,-2,-6,-131.52308E+15,4,8,12,27,5,-10,-3,0,431.52308E+15,-9,-3,10,7,7,-5,-2,-14,-91.52308E+15,3,0,-2,22,-13,26,12,20,681.52308E+15,6,4,6,6,4,-1,10,-2,331.52308E+15,0,-3,-5,-21,-8,11,-4,-16,-461.52308E+15,-3,-4,-9,9,-4,-6,-4,7,-141.52308E+15,5,0,-2,-2,9,13,9,12,441.52308E+15,-5,-1,-2,-22,16,-15,-8,-7,-441.52308E+15,4,1,0,-13,-13,4,-5,-14,-361.52308E+15,-2,-2,0,8,-13,2,3,9,51.52308E+15,-1,1,0,-13,-2,-8,2,11,-101.52308E+15,0,-4,-1,-9,13,-6,-4,-13,-241.52308E+15,4,4,9,-6,-2,21,4,5,391.52308E+15,-4,-7,-14,-12,-8,-11,-2,0,-581.52308E+15,-7,2,-3,60,3,1,2,-5,531.52308E+15,7,-1,-3,75,20,-5,-2,1,921.52308E+15,0,-6,-1,21,-17,3,1,-1,01.52308E+15,-3,-5,0,9,-8,-7,1,5,-81.52308E+15,-1,1,-4,-30,7,-2,-4,-4,-371.52308E+15,-5,1,1,-39,-6,1,-2,-7,-561.52308E+15,1,0,3,-30,9,-3,0,2,-181.52308E+15,1,4,2,5,-16,-3,0,-2,-91.52308E+15,-3,-7,-8,-5,-15,-1,2,3,-341.52308E+15,1,1,7,9,7,-1,1,4,291.52308E+15,1,0,0,9,-1,-4,-10,-7,-121.52308E+15,1,3,5,16,45,8,6,3,871.52308E+15,4,2,4,-11,-77,0,5,9,-641.52308E+15,0,2,5,16,12,-1,4,5,431.52308E+15,-2,-1,0,8,-30,-1,-2,-5,-331.52308E+15,-2,-1,-2,6,6,-8,-5,-1,-71.52308E+15,0,0,-1,-2,42,2,-6,-1,341.52308E+15,-1,-1,-8,-45,-12,2,0,-4,-691.52308E+15,0,0,4,6,39,15,-4,1,611.52308E+15,1,1,3,-4,3,-9,13,0,81.52308E+15,-1,-8,-8,-24,-39,-6,-6,3,-891.52308E+15,-3,2,0,8,5,-7,-8,-6,-91.52308E+15,-3,-3,-13,5,1,-46,-21,-5,-851.52308E+15,3,7,15,40,17,92,33,9,2161.52308E+15,5,7,17,51,88,-5,19,10,1921.52308E+15,0,-1,0,3,-100,-29,-4,3,-1281.52308E+15,-2,-3,3,9,17,-7,-2,-5,101.52308E+15,-3,0,-2,-10,-48,-32,-18,-3,-1161.52308E+15,-1,3,3,-30,0,14,4,1,-61.52308E+15,3,20,-16,-7,-58,-23,-15,-5,-1011.52308E+15,-1,-8,5,-7,-2,4,2,0,-71.52308E+15,-1,-3,-6,-10,-21,-14,-9,-3,-671.52308E+15,2,1,-1,-32,33,14,5,0,221.52308E+15,0,1,3,-21,22,2,-3,2,61.52308E+15,-2,3,-1,2,-38,15,13,0,-81.52308E+15,-3,-4,-2,-6,35,7,-5,-4,181.52308E+15,1,-9,-16,-2,-66,-45,-15,-4,-1561.52308E+15,-4,-7,5,14,12,29,13,1,631.52308E+15,0,3,2,5,55,13,11,3,921.52308E+15,-1,-5,-6,-21,-3,-24,-15,1,-741.52308E+15,-3,3,0,3,-46,-2,-4,-3,-521.52308E+15,-3,-5,1,11,76,12,-6,-7,791.52308E+15,1,-2,-4,13,-59,20,6,-2,-271.52308E+15,-1,-1,-3,-17,-16,-29,-6,1,-721.52308E+15,1,1,-1,-8,-16,10,5,1,-71.52308E+15,-3,-5,-5,-58,-38,-33,-18,-7,-1671.52308E+15,2,7,5,-15,-18,-1,6,5,-91.52308E+15,-2,-5,-3,58,123,33,4,-5,2031.52308E+15,-4,-4,-9,-13,-28,-11,-6,0,-751.52308E+15,1,-1,7,5,-70,15,12,4,-271.52308E+15,-4,-7,-18,-23,21,-48,-25,-7,-1111.52308E+15,2,2,-2,-23,-96,-4,-3,-2,-1261.52308E+15,-5,-2,3,8,36,-13,-3,-4,201.52308E+15,-1,-1,3,18,-4,50,8,1,741.52308E+15,1,-3,4,26,83,15,4,1,1311.52308E+15,9,14,16,42,72,7,13,5,1781.52308E+15,-5,-10,-17,-10,-67,-8,-5,-2,-1241.52308E+15,-7,-9,-6,42,110,-31,-11,-7,811.52308E+15,1,4,-1,-28,-65,-15,-20,-6,-1301.52308E+15,5,7,19,25,21,43,25,6,1511.52308E+15,4,-1,10,76,127,9,-3,15,2371.52308E+15,-5,-10,-19,-50,-86,-26,21,-4,-1791.52308E+15,2,1,5,13,-38,27,26,4,401.52308E+15,-1,6,7,-3,-65,-38,-49,-11,-1541.52308E+15,-6,-2,2,15,-19,-9,-42,-22,-831.52308E+15,8,4,5,12,22,21,2,21,951.52308E+15,5,6,7,4,53,6,50,3,1341.52308E+15,-1,0,-4,-10,-35,7,28,9,-61.52308E+15,-4,0,1,-14,-20,15,-8,-2,-321.52308E+15,-1,-5,-12,-17,4,-27,-20,-12,-901.52308E+15,-4,2,4,21,-12,-5,-28,-7,-291.52308E+15,-6,-6,-8,-28,-9,-38,-17,-5,-1171.52308E+15,6,2,-3,-9,11,53,50,12,1221.52308E+15,-3,0,13,65,-36,22,-13,-4,441.52308E+15,-2,-5,-22,-57,-59,-37,-1,5,-1781.52308E+15,-5,-1,-3,9,32,-23,-12,-7,-101.52308E+15,3,6,6,-27,-59,-20,-8,-5,-1041.52308E+15,-1,6,-2,-37,-3,-14,-34,-18,-1031.52308E+15,0,-11,-4,29,63,41,-8,23,1331.52308E+15,2,-4,-4,-21,-44,48,87,7,711.52308E+15,1,1,-1,8,95,-24,-40,-1,391.52308E+15,1,1,3,8,21,9,12,3,581.52308E+15,-3,4,-2,-8,-19,-31,-43,-18,-1201.52308E+15,-4,-6,-10,-12,39,-4,-21,-2,-201.52308E+15,-1,0,9,9,-25,20,9,4,251.52308E+15,2,-4,-13,-6,24,-19,32,-1,151.52308E+15,-1,-2,4,22,83,11,-21,-3,931.52308E+15,1,-1,-4,-30,-35,-7,3,3,-701.52308E+15,0,2,-1,14,-21,-5,2,-6,-151.52308E+15,-8,-13,-7,-5,-27,-7,-19,-5,-911.52308E+15,4,2,-13,-23,-43,5,27,4,-371.52308E+15,-3,-2,-5,-22,31,-2,-13,-4,-201.52308E+15,-5,-2,18,30,58,-16,-6,-7,701.52308E+15,2,0,-14,-17,4,12,9,6,21.52308E+15,3,3,2,-4,-33,18,22,2,131.52308E+15,-3,-4,-1,14,46,-24,-34,-6,-121.52308E+15,-2,-3,-12,-28,-84,-5,1,-2,-1351.52308E+15,-2,1,21,18,23,13,12,4,901.52308E+15,-3,-11,2,-21,-17,-16,-11,-5,-821.52308E+15,4,17,5,9,-45,1,-13,-4,-261.52308E+15,0,5,-23,-25,33,3,18,5,161.52308E+15,-1,-6,-5,9,-17,-9,-3,-3,-351.52308E+15,-6,-2,7,8,2,1,-9,-5,-41.52308E+15,3,-5,6,6,36,18,10,7,811.52308E+15,-3,-6,-4,-16,-64,-7,3,-3,-1001.52308E+15,0,4,8,30,50,-11,-11,-1,691.52308E+15,-5,-5,-14,-5,5,-8,-10,-10,-521.52308E+15,-2,-3,-3,-29,-81,-18,-3,-2,-1411.52308E+15,-1,-2,-7,19,17,11,-2,-2,331.52308E+15,3,-3,6,15,7,18,3,7,561.52308E+15,1,4,5,-8,12,-11,28,-1,301.52308E+15,-7,-21,2,-19,-96,-20,-28,-7,-1961.52308E+15,-1,13,30,21,66,1,0,-3,1271.52308E+15,-3,4,14,-41,-71,-19,-13,-4,-1331.52308E+15,8,4,-31,7,40,21,14,9,721.52308E+15,0,3,-3,43,39,22,10,3,1171.52308E+15,-1,-5,-1,-16,59,-16,-8,-2,101.52308E+15,-3,-3,10,4,87,11,3,-2,1071.52308E+15,2,0,-9,-5,-20,-4,-8,-2,-461.52308E+15,1,4,-4,3,23,0,4,2,331.52308E+15,2,-3,-7,-14,-44,16,7,2,-411.52308E+15,2,3,-10,-28,-39,-18,6,3,-811.52308E+15,-3,-3,23,76,86,16,-6,-3,1861.52308E+15,-7,-9,-19,-53,-77,-13,-13,-6,-1971.52308E+15,-7,-11,-9,-16,9,1,-2,-6,-411.52308E+15,2,8,6,3,17,-5,3,0,341.52308E+15,3,6,16,-4,-6,10,1,3,291.52308E+15,3,0,-12,12,1,1,4,3,121.52308E+15,5,-4,-12,-18,-12,3,6,4,-281.52308E+15,-2,-7,-8,3,-35,11,0,-1,-391.52308E+15,-8,2,8,4,-56,-12,-12,-8,-821.52308E+15,0,6,11,28,107,15,1,1,1691.52308E+15,5,20,-4,-33,-117,-2,5,2,-1241.52308E+15,-2,-24,8,10,-56,-24,-4,1,-911.52308E+15,-3,-1,25,11,2,3,-1,0,361.52308E+15,2,22,8,-14,22,-15,-6,-2,171.52308E+15,0,-8,1,44,65,35,2,1,1401.52308E+15,-6,1,2,3,-20,-34,-12,-8,-741.52308E+15,5,4,-23,-54,-107,-6,7,3,-1711.52308E+15,-5,-9,-4,32,127,7,-11,-6,1311.52308E+15,-2,-1,18,3,30,4,14,2,681.52308E+15,0,5,-4,-24,-88,4,7,1,-991.52308E+15,-6,-8,29,1,-15,-12,-14,-8,-331.52308E+15,-1,-3,8,-20,-61,-25,-2,-1,-1051.52308E+15,1,-3,1,42,28,-2,-4,2,651.52308E+15,-2,0,-18,-8,-12,6,-2,-2,-381.52308E+15,-4,0,-10,4,-14,10,-5,-4,-231.52308E+15,4,-4,5,9,-17,21,9,5,321.52308E+15,-3,-9,-21,-80,-25,-27,-8,-6,-1791.52308E+15,1,4,12,33,54,23,2,0,1291.52308E+15,2,1,15,11,24,-11,-2,1,411.52308E+15,1,5,-29,2,0,-3,0,-1,-251.52308E+15,0,-5,-2,-1,-32,-6,-4,-2,-521.52308E+15,1,12,21,-4,36,-4,-6,-4,521.52308E+15,16,-3,-83,-40,-2,25,22,18,-471.52308E+15,-1,10,10,50,104,21,7,-2,1991.52308E+15,-7,4,8,19,-81,18,3,1,-351.52308E+15,-1,0,-24,3,94,-16,-3,-1,521.52308E+15,-4,-2,18,7,-36,-20,-10,-4,-511.52308E+15,0,-6,5,-22,-7,14,1,0,-151.52308E+15,4,-3,-7,9,36,-3,-2,-1,331.52308E+15,-1,0,8,1,-11,3,1,0,11.52308E+15,-2,0,9,38,36,15,4,0,1001.52308E+15,0,-5,-14,-52,-100,-27,-6,-2,-2061.52308E+15,-4,-4,7,20,41,20,-2,-4,741.52308E+15,2,-2,-11,-30,-26,-21,-1,3,-861.52308E+15,-4,-5,2,9,-2,-7,-8,-4,-191.52308E+15,-2,-6,12,2,-27,-6,-2,-3,-321.52308E+15,3,3,-17,-12,-7,6,2,2,-201.52308E+15,1,5,2,15,54,17,8,3,1051.52308E+15,-3,-2,-4,-24,-22,-13,-7,-5,-801.52308E+15,-3,-9,2,-1,-11,-4,-4,-3,-331.52308E+15,-4,-9,19,35,27,-8,-3,-1,561.52308E+15,8,18,-29,-21,4,21,6,4,111.52308E+15,-8,-6,-10,-3,13,-8,-6,-6,-341.52308E+15,2,3,-1,-2,-15,2,6,3,-21.52308E+15,0,-2,5,8,107,-22,-3,-1,921.52308E+15,-3,-8,7,16,-39,10,-4,-6,-271.52308E+15,1,-1,-8,-52,-63,-8,-3,1,-1331.52308E+15,-1,-2,-5,-14,-32,-16,-2,1,-711.52308E+15,-1,4,-1,15,-14,14,5,1,231.52308E+15,4,-2,-9,-13,27,-1,5,4,151.52308E+15,1,4,14,-6,9,-16,-3,-1,21.52308E+15,-5,-2,26,64,84,22,-5,-5,1791.52308E+15,8,2,-71,-91,-128,-12,8,7,-2771.52308E+15,-2,-3,12,38,124,14,3,-2,1841.52308E+15,-3,-5,-3,2,-3,8,4,0,01.52308E+15,1,3,4,-39,7,9,1,1,-131.52308E+15,-3,2,27,54,25,-44,-12,-7,421.52308E+15,-2,-7,-17,-1,-26,2,-3,-2,-561.52308E+15,10,2,-15,-16,20,6,6,12,251.52308E+15,-15,-5,-10,23,3,7,2,-17,-121.52308E+15,1,1,10,-18,-1,-4,-1,1,-111.52308E+15,-2,-4,10,2,-39,-8,-6,-2,-491.52308E+15,-3,-2,9,24,45,-4,-6,0,631.52308E+15,-7,-4,-11,-26,-40,-6,1,-10,-1031.52308E+15,3,1,1,13,-38,-2,2,2,-181.52308E+15,-4,-5,-11,-21,-17,0,-5,-5,-681.52308E+15,1,3,2,7,-8,3,2,1,111.52308E+15,7,2,7,-13,-83,-3,0,7,-761.52308E+15,-3,-3,-1,-1,-22,-18,-4,-4,-561.52308E+15,-7,-7,3,24,74,15,-6,-6,901.52308E+15,-1,1,28,-3,22,1,-2,-6,401.52308E+15,6,-1,-32,-10,-13,-8,2,8,-481.52308E+15,-4,2,26,-7,-11,1,-4,-5,-21.52308E+15,5,1,-9,12,-100,12,11,8,-601.52308E+15,-7,-2,2,31,91,2,-2,-7,1081.52308E+15,-1,-5,-6,-43,-31,-17,-9,-1,-1131.52308E+15,-1,2,5,13,9,13,-2,-2,371.52308E+15,-1,0,4,-19,-33,-5,0,-1,-551.52308E+15,14,-3,-19,-5,-26,6,5,14,-141.52308E+15,-17,7,2,20,47,-1,0,-8,501.52308E+15,0,-6,-12,-18,-14,5,0,2,-431.52308E+15,-2,-1,20,3,7,-6,-6,-3,121.52308E+15,12,8,-49,11,61,-3,4,5,491.52308E+15,-2,-6,16,0,-23,-2,-4,0,-211.52308E+15,0,-5,-2,-5,-25,9,7,4,-171.52308E+15,-2,-2,-5,-11,24,0,-3,-3,-21.52308E+15,-8,-5,14,-7,-36,-4,-5,-9,-601.52308E+15,3,2,23,47,7,-13,-8,-2,591.52308E+15,-2,2,10,-31,-29,2,-1,-1,-501.52308E+15,-2,41,7,-19,67,-1,4,0,971.52308E+15,-2,-47,-4,7,1,7,2,-2,-381.52308E+15,0,-10,-14,-14,-22,-3,-4,-1,-681.52308E+15,-2,-10,18,27,14,-9,-6,-2,301.52308E+15,15,28,-51,6,0,13,8,9,281.52308E+15,-5,-10,-23,-9,-34,4,4,-1,-741.52308E+15,-2,-5,27,10,103,12,11,5,1611.52308E+15,-4,36,-35,-33,-53,-16,-8,-5,-1181.52308E+15,-3,-20,6,7,5,-9,-9,-5,-281.52308E+15,-2,13,11,-4,-24,-6,-4,-6,-221.52308E+15,14,46,-40,14,29,11,14,13,1011.52308E+15,4,-43,11,45,127,66,16,4,2301.52308E+15,-12,-7,-7,-44,-14,-52,-17,-7,-1601.52308E+15,-11,-6,8,-54,-120,-25,-15,-10,-2331.52308E+15,-1,-6,3,-43,-5,-6,-4,1,-611.52308E+15,1,12,10,14,5,2,-2,-1,411.52308E+15,1,-10,-7,-9,-24,2,4,1,-421.52308E+15,-4,-5,-1,49,127,30,3,-1,1981.52308E+15,-3,-4,-18,-34,-110,-29,-13,-6,-2171.52308E+15,0,8,-11,1,-11,-13,-3,0,-291.52308E+15,1,-20,16,13,-3,8,3,1,191.52308E+15,-2,18,9,-22,-48,-9,-4,-3,-611.52308E+15,7,5,4,33,27,21,6,3,1061.52308E+15,-10,-32,-18,-3,102,-7,2,-1,331.52308E+15,-6,-7,-1,-35,-88,-16,-9,-6,-1681.52308E+15,2,9,19,6,-40,18,3,0,171.52308E+15,-3,-1,30,-18,13,-13,-13,-7,-121.52308E+15,2,-5,-13,79,16,-2,-2,-1,741.52308E+15,1,-4,8,-20,-27,17,10,6,-91.52308E+15,-1,8,13,10,-4,-2,3,1,281.52308E+15,-2,-13,-14,-13,-52,-16,-7,-2,-1191.52308E+15,1,14,16,-22,36,-2,0,0,431.52308E+15,-1,-4,7,0,-62,11,-1,-3,-531.52308E+15,6,-1,-33,30,87,2,3,4,981.52308E+15,0,0,11,-11,-61,5,1,2,-531.52308E+15,2,0,9,-24,-35,2,1,1,-441.52308E+15,-6,34,9,50,20,-5,2,1,1051.52308E+15,-1,-31,-3,-14,-4,5,-1,-2,-511.52308E+15,2,-1,-5,2,-19,-2,-1,-1,-251.52308E+15,-2,-16,-44,-16,9,-4,-4,-4,-811.52308E+15,4,6,2,31,77,6,3,2,1311.52308E+15,-2,10,7,1,6,-10,1,1,141.52308E+15,0,5,74,-45,-20,-19,-10,-7,-221.52308E+15,-8,-22,9,-2,-125,5,4,-1,-1401.52308E+15,-7,-22,12,10,15,-12,-10,-10,-241.52308E+15,-6,16,-11,-13,10,-11,-8,-6,-291.52308E+15,3,-2,-12,3,38,2,4,7,431.52308E+15,6,15,10,-20,-10,0,-3,2,01.52308E+15,-3,-12,-12,2,-6,0,1,2,-281.52308E+15,-5,-14,13,-11,-47,-2,-2,36,-321.52308E+15,1,11,8,63,43,6,2,15,1491.52308E+15,-3,11,6,-43,-81,-27,-11,59,-891.52308E+15,12,49,-13,7,-22,3,5,-51,-101.52308E+15,2,-35,23,9,14,-4,3,-107,-951.52308E+15,-8,35,-1,10,62,7,1,-34,721.52308E+15,-8,-7,1,-8,34,3,-3,-3,91.52308E+15,-5,-5,2,-22,8,-19,-6,49,21.52308E+15,2,10,-10,9,26,1,-3,27,621.52308E+15,-1,-20,-48,39,6,12,4,-11,-191.52308E+15,-9,-4,11,3,-28,-5,0,50,181.52308E+15,18,-12,-20,-27,50,9,4,57,791.52308E+15,6,8,-2,-19,-33,-9,-1,-96,-1461.52308E+15,-2,-28,-36,-23,-11,7,3,-13,-1031.52308E+15,-6,17,30,-18,-6,-14,-10,-38,-451.52308E+15,-10,-31,18,11,-13,8,4,39,261.52308E+15,-5,19,6,-11,-22,-1,1,127,1141.52308E+15,0,-3,9,34,-2,-2,4,-54,-141.52308E+15,1,3,-16,70,42,3,-7,-107,-111.52308E+15,-4,-14,-15,-49,-65,-3,-2,-27,-1791.52308E+15,0,-2,35,-28,-1,-5,-2,-1,-41.52308E+15,1,-3,-2,-49,-18,8,3,52,-81.52308E+15,5,-1,-19,29,87,6,7,120,2341.52308E+15,1,-11,-21,8,115,-4,1,-128,-391.52308E+15,1,12,-36,30,57,10,4,-71,71.52308E+15,-4,-2,-30,-10,127,-8,-3,-4,661.52308E+15,8,6,-12,-2,-10,-6,2,-9,-231.52308E+15,-5,3,12,-3,-39,4,-2,126,961.52308E+15,-1,7,6,30,-86,13,5,-75,-1011.52308E+15,-2,-16,-6,16,-114,-17,-6,-4,-1491.52308E+15,1,-3,13,13,-56,9,6,10,-71.52308E+15,5,2,-74,43,-75,18,6,52,-231.52308E+15,-2,1,13,-16,-43,-2,0,38,-111.52308E+15,2,-7,-4,11,62,6,0,8,781.52308E+15,1,7,11,-90,-49,-7,-4,-14,-1451.52308E+15,-2,2,59,66,66,4,3,-26,1721.52308E+15,-6,-7,-15,-64,-54,-24,-11,8,-1731.52308E+15,-1,-3,4,-4,-11,-1,-1,-7,-241.52308E+15,1,3,-2,-64,-18,-3,2,-12,-931.52308E+15,-2,-1,14,17,63,19,3,-40,731.52308E+15,0,-2,-7,6,-4,-5,-3,0,-151.52308E+15,-1,2,17,20,-30,-4,-3,20,211.52308E+15,0,-3,-9,-3,-5,3,0,-24,-411.52308E+15,-1,0,19,-28,-48,-12,-4,-21,-951.52308E+15,2,-3,-3,15,32,2,4,25,741.52308E+15,21,15,-53,25,-53,11,9,17,-81.52308E+15,-23,-20,-8,18,127,4,-4,-20,741.52308E+15,-4,-2,-1,-26,-93,-19,-10,-16,-1711.52308E+15,-4,-5,-3,-30,36,-5,-8,15,-41.52308E+15,-1,-4,16,-23,20,11,3,-6,161.52308E+15,9,4,1,50,-3,-5,1,-11,461.52308E+15,-1,-5,-1,13,44,0,0,1,511.52308E+15,-5,-3,-3,-17,-63,-9,-1,4,-971.52308E+15,1,-3,11,-11,-22,0,0,1,-231.52308E+15,2,3,-18,15,20,4,2,-3,251.52308E+15,-5,-4,6,-28,-2,-4,-7,-3,-471.52308E+15,5,9,10,10,-53,17,3,3,41.52308E+15,-7,-6,0,39,-66,-24,-8,2,-701.52308E+15,2,-2,4,-23,-87,-1,0,2,-1051.52308E+15,-1,0,-10,-29,0,-11,0,-7,-581.52308E+15,0,1,-1,28,56,-1,-4,0,791.52308E+15,-5,-2,6,-19,-6,11,1,4,-101.52308E+15,3,1,6,27,48,-7,0,-2,761.52308E+15,0,-1,-12,-60,-56,-1,-3,-6,-1391.52308E+15,-4,-2,6,6,43,-2,-1,5,511.52308E+15,-3,-3,4,19,13,3,-1,4,361.52308E+15,2,7,9,19,27,-5,-1,-5,531.52308E+15,0,-3,0,9,33,9,0,-3,451.52308E+15,-2,-2,11,-1,39,-2,0,5,481.52308E+15,-1,-1,2,-32,-12,1,-2,-3,-481.52308E+15,-2,-4,1,-16,-7,-5,-3,-5,-411.52308E+15,-1,-1,-4,8,-29,-13,-2,-1,-431.52308E+15,-2,2,0,-16,47,10,3,2,461.52308E+15,-3,-7,-6,-4,-23,-8,-3,-3,-571.52308E+15,2,6,3,-23,2,3,0,-3,-101.52308E+15,0,3,12,41,56,5,3,-1,1191.52308E+15,-4,-11,-20,-16,-70,-6,-5,4,-1281.52308E+15,-1,-1,11,3,77,3,3,0,951.52308E+15,0,-1,8,8,49,9,0,-2,711.52308E+15,-1,-1,-12,-39,-82,-17,-5,-2,-1591.52308E+15,-2,-2,-9,55,6,-1,-2,-2,431.52308E+15,-2,-2,-1,-4,-2,-1,1,2,-91.52308E+15,2,-3,-3,-12,-33,-6,1,2,-521.52308E+15,2,2,7,29,27,6,6,0,791.52308E+15,0,3,24,-4,-9,-1,-2,-1,101.52308E+15,-4,-7,-14,-34,-35,-6,-6,-2,-1081.52308E+15,-2,2,4,20,-21,4,-2,0,51.52308E+15,-1,1,-1,3,54,2,2,0,601.52308E+15,4,5,7,8,-4,-7,0,4,171.52308E+15,-2,-3,-14,-18,41,2,-5,-2,-11.52308E+15,-4,-6,21,52,50,1,-3,-5,1061.52308E+15,3,-1,-7,-18,-102,-4,1,2,-1261.52308E+15,-4,5,1,-28,77,-1,0,-1,491.52308E+15,0,7,4,54,35,2,-2,-1,991.52308E+15,-2,-8,-6,-24,6,-1,0,0,-351.52308E+15,2,-1,6,11,-12,3,1,2,121.52308E+15,2,-3,4,-1,34,8,4,1,491.52308E+15,-2,-4,-15,-21,-17,-11,-5,-1,-761.52308E+15,-1,3,-9,1,-31,4,-2,2,-331.52308E+15,-1,-1,5,18,16,2,2,0,411.52308E+15,3,3,-8,9,23,-3,3,-1,291.52308E+15,-4,-4,1,51,37,0,-5,-2,741.52308E+15,0,-2,-20,5,7,3,1,0,-61.52308E+15,-4,-3,-4,-4,-54,-5,-8,-2,-841.52308E+15,-1,-2,2,-3,-40,-2,-1,-2,-491.52308E+15,-2,1,-3,-15,66,0,0,1,481.52308E+15,1,3,-1,-29,-67,-9,0,0,-1021.52308E+15,-3,-5,-3,-34,11,-11,-4,-4,-531.52308E+15,1,0,-10,-17,-27,0,1,0,-521.52308E+15,-1,-4,8,23,-4,9,2,-2,311.52308E+15,0,-8,0,-43,-25,1,-2,-2,-791.52308E+15,-2,19,15,-3,14,2,-2,1,441.52308E+15,-2,-8,-14,9,31,-1,-2,0,131.52308E+15,2,3,1,-54,-40,-14,-1,-2,-1051.52308E+15,2,5,-10,29,68,4,2,1,1011.52308E+15,0,-12,-19,-14,-26,9,0,-2,-641.52308E+15,2,-1,-3,-17,17,-3,-1,1,-51.52308E+15,-3,9,28,58,55,7,1,-3,1521.52308E+15,4,-1,-24,-53,-92,-15,-4,1,-1841.52308E+15,-4,-2,2,-38,35,3,-2,-1,-71.52308E+15,-3,-3,-7,39,-10,-7,-3,-1,51.52308E+15,3,-1,-2,-36,-36,1,0,-1,-721.52308E+15,-2,6,5,37,47,5,1,-3,961.52308E+15,5,5,2,10,40,1,0,0,631.52308E+15,-3,1,-2,69,-54,-4,-5,-2,01.52308E+15,0,-8,-10,-4,46,6,2,2,341.52308E+15,3,6,9,-6,-76,6,5,3,-501.52308E+15,-5,-10,-29,10,52,-6,-6,-6,01.52308E+15,1,-1,13,35,27,10,3,0,881.52308E+15,-4,-3,-7,-35,1,-14,-2,2,-621.52308E+15,-2,2,10,60,78,5,-1,-2,1501.52308E+15,-1,-4,3,-10,-23,0,1,-1,-351.52308E+15,3,4,1,19,61,16,6,0,1101.52308E+15,-4,-7,-33,-69,-93,-42,-16,-7,-2711.52308E+15,-7,-10,10,-10,54,-3,-5,-3,261.52308E+15,-2,-3,-4,-3,-6,-4,-4,2,-241.52308E+15,-1,-1,-5,-49,9,-13,-6,-1,-671.52308E+15,1,3,20,2,-17,26,6,1,421.52308E+15,1,0,5,43,38,0,5,3,951.52308E+15,-1,-6,24,-20,10,-15,-8,-2,-181.52308E+15,-3,3,-23,11,-128,-7,-3,1,-1491.52308E+15,6,10,19,-69,97,39,11,1,1141.52308E+15,-8,-10,-16,36,-54,-56,-22,-6,-1361.52308E+15,0,1,13,-19,10,-8,7,3,71.52308E+15,2,4,17,23,25,3,1,-1,741.52308E+15,-4,-9,-20,-4,-76,2,-1,0,-1121.52308E+15,3,-2,6,-28,-65,2,3,-3,-841.52308E+15,7,32,5,39,42,17,4,-1,1451.52308E+15,-13,-16,5,-25,-24,-13,-7,-7,-1001.52308E+15,2,9,14,26,37,9,8,1,1061.52308E+15,2,-14,-35,-35,-17,-16,0,3,-1121.52308E+15,2,12,7,39,-15,-2,-5,-2,361.52308E+15,7,11,3,9,81,37,13,1,1621.52308E+15,-8,-14,21,1,26,-18,-13,-5,-101.52308E+15,1,17,-3,-11,5,19,5,-4,291.52308E+15,-2,-10,-20,0,79,9,5,2,631.52308E+15,4,3,2,-24,36,4,4,0,291.52308E+15,2,2,13,54,60,-1,3,1,1341.52308E+15,2,2,6,74,25,43,4,0,1561.52308E+15,-6,-15,-18,-18,-75,-59,-14,-2,-2071.52308E+15,-8,-12,19,-99,-119,-22,-17,-7,-2651.52308E+15,8,10,-51,52,-10,10,12,5,361.52308E+15,-2,-1,8,44,60,28,10,4,1511.52308E+15,0,-4,10,33,-47,5,2,-2,-31.52308E+15,-1,7,6,-26,-31,-19,-4,-3,-711.52308E+15,-3,-5,-6,-37,-118,-8,-9,-1,-1871.52308E+15,2,0,16,4,76,7,0,-1,1041.52308E+15,-5,-12,-9,-24,-40,-3,-1,-4,-981.52308E+15,-2,-3,-8,46,40,9,3,2,871.52308E+15,4,15,-13,-62,-91,-34,-7,1,-1871.52308E+15,2,-2,24,43,76,17,5,-2,1631.52308E+15,-5,-16,-20,-82,-89,-19,-10,-3,-2441.52308E+15,1,-1,7,96,53,50,9,4,2191.52308E+15,-2,-3,6,-15,8,-7,-3,-3,-191.52308E+15,-8,2,51,-43,-1,-36,-17,-8,-601.52308E+15,2,5,-8,-9,9,10,6,2,171.52308E+15,-2,-2,-3,-5,73,10,3,-2,721.52308E+15,-2,-3,15,50,-81,-8,-3,0,-321.52308E+15,-8,-2,2,-88,-13,-20,-13,-7,-1491.52308E+15,8,3,-17,127,127,42,15,3,3081.52308E+15,9,-15,-25,-44,-128,-47,-8,8,-2501.52308E+15,-14,51,1,-13,54,10,12,-6,951.52308E+15,-2,-26,-42,-37,-54,-9,-9,-2,-1811.52308E+15,-2,14,15,38,93,6,-2,-3,1591.52308E+15,8,-5,19,67,-13,10,2,4,921.52308E+15,-1,-16,-70,-99,-7,-16,-8,-1,-2181.52308E+15,-3,0,-8,67,-69,0,4,3,-61.52308E+15,5,-12,6,12,70,18,6,0,1051.52308E+15,-1,70,-3,-128,-96,-6,-4,1,-1671.52308E+15,-9,-72,48,-10,60,-21,-14,-6,-241.52308E+15,10,25,-38,16,-68,-3,2,4,-521.52308E+15,-14,-32,-16,-51,-107,0,0,3,-2171.52308E+15,-4,1,-9,13,80,-2,0,-5,741.52308E+15,3,-9,21,12,-72,0,2,0,-431.52308E+15,9,10,-15,-26,42,4,4,1,291.52308E+15,2,11,21,9,-57,2,-3,2,-131.52308E+15,-1,-12,-5,-69,26,-10,1,-2,-721.52308E+15,12,8,-69,-33,-49,-1,1,13,-1181.52308E+15,-16,2,-7,-46,52,-8,6,-12,-291.52308E+15,-7,-56,24,55,-111,-11,-13,-3,-1221.52308E+15,17,50,-48,-75,68,-9,2,-35,-301.52308E+15,-31,-85,19,91,-13,7,-5,-6,-231.52308E+15,-2,-20,28,-4,28,14,6,61,1111.52308E+15,1,40,7,5,71,27,8,-19,1401.52308E+15,-2,-100,20,71,1,-5,-9,5,-191.52308E+15,29,116,82,-51,-71,-45,-20,-4,361.52308E+15,36,115,-14,77,-69,29,20,-30,1641.52308E+15,-74,-24,11,-30,40,4,-4,-83,-1601.52308E+15,-83,-89,-9,127,-39,-12,-12,-97,-2141.52308E+15,-22,45,-16,47,82,25,14,69,2441.52308E+15,59,-117,114,-128,23,-41,-11,93,-81.52308E+15,71,115,13,-85,52,25,19,-33,1771.52308E+15,47,5,-25,-80,50,14,12,-86,-631.52308E+15,-49,61,-5,117,-3,12,0,-128,51.52308E+15,2,-38,-18,6,-10,-17,-25,66,-341.52308E+15,-84,-16,-51,52,-36,-8,7,24,-1121.52308E+15,-55,-30,1,4,-32,-13,-17,-70,-2121.52308E+15,-62,20,35,94,66,8,-1,100,2601.52308E+15,79,23,-19,-71,44,25,33,-21,931.52308E+15,9,-33,39,-12,-79,-39,-23,-92,-2301.52308E+15,6,55,-5,-98,1,-8,5,36,-81.52308E+15,19,-42,32,-112,127,-37,-19,-125,-1571.52308E+15,-34,127,93,45,-115,65,-26,57,2121.52308E+15,42,-80,-125,-128,-30,-107,17,127,-2841.52308E+15,-20,127,63,-56,88,103,13,-45,2731.52308E+15,126,59,19,90,56,40,30,127,5471.52308E+15,-120,-41,-96,-128,35,-73,-18,23,-4181.52308E+15,-65,112,127,-5,-102,-11,-3,-104,-511.52308E+15,-53,80,77,127,-128,-95,-13,1,-41.52308E+15,-29,118,4,-94,-119,127,22,8,371.52308E+15,-5,-20,-98,-64,-53,-52,-5,53,-2441.52308E+15,28,107,-128,-110,82,49,-10,127,1451.52308E+15,25,-128,-128,-121,-54,-76,14,127,-3411.52308E+15,19,-58,69,-70,-55,-85,-26,60,-1461.52308E+15,-4,75,81,91,22,-106,-22,4,1411.52308E+15,1,92,-82,5,121,85,-55,33,2001.52308E+15,36,127,-80,-89,-69,-67,-8,47,-1031.52308E+15,-3,77,-128,-70,55,57,-53,-66,-1311.52308E+15,10,54,-127,31,-24,14,20,-83,-1051.52308E+15,118,48,-15,60,110,26,98,44,4891.52308E+15,-66,5,-69,-42,13,21,-36,-53,-2271.52308E+15,-15,-63,-77,-8,-62,-47,-11,-50,-3331.52308E+15,11,-30,-48,-16,11,6,-91,-78,-2351.52308E+15,-15,-8,14,37,-1,5,73,-93,121.52308E+15,127,-50,29,60,26,64,-63,109,3021.52308E+15,22,-52,9,-52,18,-29,21,3,-601.52308E+15,-57,-31,-32,-103,-70,-19,-117,-87,-5161.52308E+15,-6,-73,21,67,-91,-19,-38,-36,-1751.52308E+15,-41,-52,13,-15,48,28,-4,-63,-861.52308E+15,-23,-27,9,29,7,-32,2,-10,-451.52308E+15,13,6,3,52,3,27,57,20,1811.52308E+15,-10,-44,-2,-20,-46,-9,-3,4,-1301.52308E+15,-6,-5,24,35,21,21,44,12,1461.52308E+15,3,8,-16,1,18,5,-11,14,221.52308E+15,13,-13,-1,20,-4,31,61,-21,861.52308E+15,-23,-15,17,-13,-9,-4,-20,-4,-711.52308E+15,7,12,15,22,29,-10,-12,-2,611.52308E+15,12,-7,-3,33,14,10,21,8,881.52308E+15,-17,-7,7,-15,1,-5,8,-29,-571.52308E+15,-7,-2,14,-13,9,-13,-32,9,-351.52308E+15,18,7,2,15,-36,20,11,21,581.52308E+15,4,-12,-9,6,34,-5,13,3,341.52308E+15,-10,0,11,-6,-20,13,25,-4,91.52308E+15,21,-2,-20,-15,-5,7,-19,23,-101.52308E+15,-11,-6,-2,-1,-10,5,-6,-3,-341.52308E+15,-5,-2,-5,-16,-57,-52,29,0,-1081.52308E+15,-5,2,4,33,104,123,-26,-19,2161.52308E+15,9,-6,6,22,-8,44,51,30,1481.52308E+15,5,-3,-3,-20,6,-21,46,6,161.52308E+15,-1,-2,3,-14,57,-9,-26,-10,-21.52308E+15,10,3,-12,34,-25,-48,5,4,-291.52308E+15,-9,-2,12,2,67,-38,-45,-16,-291.52308E+15,-4,-6,-11,-3,36,-33,-27,-11,-591.52308E+15,-4,-3,3,-5,-22,32,8,3,121.52308E+15,15,0,-1,-21,0,8,44,7,521.52308E+15,-12,-6,28,-2,-10,16,-28,-6,-201.52308E+15,-15,0,-42,27,36,3,12,-23,-21.52308E+15,46,-5,-15,6,-12,2,-18,36,401.52308E+15,-32,14,31,0,5,-23,-8,-31,-441.52308E+15,13,3,16,-22,-42,-18,-29,5,-741.52308E+15,-21,7,25,11,4,-1,23,0,481.52308E+15,8,-15,-31,-9,-8,16,3,-8,-441.52308E+15,-3,-20,5,19,5,10,10,-13,131.52308E+15,4,-2,-72,-38,24,-27,-13,-11,-1351.52308E+15,48,14,19,3,-43,6,-89,-8,-501.52308E+15,-69,-10,48,11,-23,12,32,29,301.52308E+15,38,23,40,-9,-8,-10,105,71,2501.52308E+15,0,-10,-12,-52,21,27,-6,-16,-481.52308E+15,0,-19,-18,-42,29,-12,-24,-1,-871.52308E+15,13,6,-35,23,-32,3,-58,-37,-1171.52308E+15,-1,-3,-16,98,-38,7,-88,-25,-661.52308E+15,-20,-6,25,19,74,-34,47,14,1191.52308E+15,18,13,4,-1,-41,22,40,14,691.52308E+15,-4,-7,16,1,12,-19,-3,-2,-61.52308E+15,-8,-12,-25,-39,19,3,6,-9,-651.52308E+15,-1,-5,3,20,-49,17,-10,-4,-291.52308E+15,-6,-7,-62,-17,-91,24,-1,-1,-1611.52308E+15,2,19,90,14,117,-86,-8,-2,1461.52308E+15,-11,-14,-22,-11,-11,10,0,-2,-611.52308E+15,2,17,30,48,-32,3,-15,-9,441.52308E+15,-5,-10,-39,25,9,10,12,14,161.52308E+15,-1,37,3,-37,-48,14,7,-12,-371.52308E+15,6,-71,-56,-52,17,-3,-10,-7,-1761.52308E+15,-5,21,66,-21,-12,-28,-17,6,101.52308E+15,-7,0,7,-39,23,-13,9,0,-201.52308E+15,7,1,-39,7,-7,39,13,1,221.52308E+15,32,7,20,15,24,-39,-21,-2,361.52308E+15,-58,-23,-57,32,-26,46,16,0,-701.52308E+15,27,26,89,17,14,-6,26,6,1991.52308E+15,-2,-23,-16,124,51,11,-21,-11,1131.52308E+15,1,17,10,6,-14,-52,-16,-3,-511.52308E+15,14,-14,-14,-86,-73,-44,-27,-6,-2501.52308E+15,-4,-5,3,-27,50,77,18,12,1241.52308E+15,31,-17,-33,-84,-15,-61,-7,11,-1751.52308E+15,-17,19,-31,13,-14,66,22,-6,521.52308E+15,13,22,80,29,10,-22,-24,-9,991.52308E+15,-9,-9,20,11,-14,-86,-16,-8,-1111.52308E+15,5,-9,-24,-37,0,18,3,2,-421.52308E+15,4,3,-33,15,12,4,-7,0,-21.52308E+15,-15,-16,-39,1,-27,18,6,-5,-771.52308E+15,4,13,69,-21,41,-16,-33,1,581.52308E+15,-3,-4,11,5,-2,64,60,5,1361.52308E+15,-2,-1,6,-8,5,-18,-22,-7,-471.52308E+15,5,7,-9,30,1,2,8,7,511.52308E+15,59,-5,-33,40,-8,-1,-1,4,551.52308E+15,-116,0,1,-5,-32,-25,-43,-21,-2411.52308E+15,41,16,31,-25,12,11,31,9,1261.52308E+15,6,-8,-26,-31,24,40,63,14,821.52308E+15,8,-7,-31,-18,16,-8,-19,-1,-601.52308E+15,16,-1,15,21,-24,-7,-1,-1,181.52308E+15,-28,1,1,-5,-19,-31,-25,-8,-1141.52308E+15,19,4,50,21,16,26,-10,-1,1251.52308E+15,-14,-1,18,18,-1,18,29,1,681.52308E+15,12,1,-11,-6,-17,12,-5,-3,-171.52308E+15,-24,-5,-18,27,33,-4,-6,-2,11.52308E+15,13,0,-39,31,-6,-25,-8,-2,-361.52308E+15,-24,-7,-18,49,-10,23,1,-5,91.52308E+15,3,1,-7,11,-13,-5,-8,-3,-211.52308E+15,10,13,43,4,-8,7,7,7,831.52308E+15,-2,-5,-4,-31,20,-25,4,-3,-461.52308E+15,-23,-8,-1,-52,-14,-8,-11,-3,-1201.52308E+15,12,-6,-2,-27,20,-1,0,1,-31.52308E+15,-3,8,15,-13,-11,-7,-7,-8,-261.52308E+15,-1,-6,-8,-10,5,-9,-8,2,-351.52308E+15,7,-7,-3,12,12,42,12,8,831.52308E+15,-12,-2,-13,-12,-3,-13,-2,1,-561.52308E+15,7,3,15,-16,-13,-8,6,4,-21.52308E+15,-6,-3,-2,-11,-2,-9,-13,-6,-521.52308E+15,-2,3,-5,8,21,-21,-5,0,-11.52308E+15,10,-1,4,0,-16,6,3,4,101.52308E+15,-16,-7,-18,-13,-12,5,-3,-3,-671.52308E+15,32,-5,12,1,1,7,11,12,711.52308E+15,-50,-2,-8,-3,-3,-27,-4,-5,-1021.52308E+15,19,3,-6,-21,9,11,-4,-2,91.52308E+15,-6,0,-7,-44,8,-13,-10,-9,-811.52308E+15,-7,-12,-58,-9,10,-62,-25,-3,-1661.52308E+15,16,-8,-35,7,-33,86,28,9,701.52308E+15,7,20,81,-29,-44,-26,-7,3,51.52308E+15,-10,2,14,-8,57,10,2,-1,661.52308E+15,-6,-3,-10,0,-23,-12,-7,-2,-631.52308E+15,-12,4,-3,38,48,-8,-7,-5,551.52308E+15,-9,-15,-20,-19,-11,-3,-3,-4,-841.52308E+15,11,3,-13,-4,-46,24,16,6,-31.52308E+15,-11,-5,16,-33,-19,21,-6,-8,-451.52308E+15,4,-23,2,-58,-59,-90,-13,0,-2371.52308E+15,-3,8,11,6,-3,59,4,-5,771.52308E+15,7,8,14,68,94,-34,-3,6,1601.52308E+15,-18,15,-56,-8,-50,15,3,1,-981.52308E+15,12,-6,43,15,-15,1,2,-1,511.52308E+15,-8,-20,-105,-117,-30,-48,-19,-11,-3581.52308E+15,18,37,91,55,76,113,58,5,4531.52308E+15,17,-3,16,-23,-7,-29,-15,0,-441.52308E+15,-5,3,-26,-45,-17,-6,12,-11,-951.52308E+15,-10,-34,-93,127,38,-75,-27,-5,-791.52308E+15,-7,-2,-11,-58,-73,84,-45,-36,-1481.52308E+15,-34,21,51,-14,10,-30,8,8,201.52308E+15,4,4,0,-10,39,-11,42,5,731.52308E+15,23,-13,-28,-19,70,13,38,40,1241.52308E+15,-10,-51,-88,-72,-59,-47,11,19,-2971.52308E+15,-48,-36,-59,-61,4,-56,-101,-41,-3981.52308E+15,56,-29,-37,-11,-19,10,-33,9,-541.52308E+15,28,2,-56,24,-5,111,4,-85,231.52308E+15,-23,44,98,-108,-8,13,68,50,1341.52308E+15,20,5,30,-1,-22,-54,-62,-69,-1531.52308E+15,-9,1,5,63,71,-47,98,31,2131.52308E+15,-5,-35,-25,-59,11,-68,-84,-21,-2861.52308E+15,18,-19,-49,81,-50,-6,-35,44,-161.52308E+15,32,9,53,91,33,66,-13,-53,2181.52308E+15,-49,72,124,62,30,34,16,-17,2721.52308E+15,48,52,81,115,-77,-9,111,68,3891.52308E+15,-29,2,25,91,103,-80,-23,-84,51.52308E+15,32,-6,18,75,-52,-29,11,51,1001.52308E+15,-15,-38,-30,49,-24,-22,-90,-47,-2171.52308E+15,-107,-7,54,90,-3,-43,-45,85,241.52308E+15,104,47,18,-38,-3,-12,79,-68,1271.52308E+15,16,7,27,-36,61,-54,31,-18,341.52308E+15,-4,0,-19,-17,26,49,22,-1,561.52308E+15,36,7,38,5,23,-37,-38,-5,291.52308E+15,-74,-54,-65,13,11,-92,-56,30,-2871.52308E+15,9,20,-22,18,-25,127,56,50,2331.52308E+15,61,13,-45,-44,-52,-16,-19,-12,-1141.52308E+15,53,-36,0,-19,12,-28,-19,-20,-571.52308E+15,-116,11,49,14,-19,78,-17,29,291.52308E+15,83,58,85,-82,-58,-11,59,27,1611.52308E+15,-15,2,-38,-76,1,-125,-59,21,-2891.52308E+15,-11,-10,-53,-65,47,107,25,-14,261.52308E+15,60,-56,-109,-38,-28,-59,-19,2,