timestamp,emg1,emg2,emg3,emg4,emg5,emg6,emg7,emg8
1523080528665522,-1,-2,-1,-9,-3,-7,-3,1
1523080528665522,0,-1,-3,-19,23,3,-1,1
1523080528665522,-2,-2,4,22,-3,9,3,2
1523080528665522,1,1,3,0,-2,11,26,8
1523080528667510,2,1,-6,-26,-5,11,0,2
1523080528667510,-3,0,2,14,-8,3,-4,-2
1523080528668510,-1,1,7,0,13,-17,-10,-5
1523080528668510,0,1,-3,-11,-18,-3,-6,0
1523080528677518,-1,0,2,12,12,3,1,0
1523080528677518,-1,-2,0,9,-24,-3,6,0
1523080528681520,-1,0,-3,-8,9,3,-1,-3
1523080528681520,-2,0,-3,-2,20,-4,-7,-3
1523080528696597,-2,-1,3,15,-10,-5,-3,-2
1523080528696597,0,-1,0,-1,0,2,-3,-3
1523080528705598,0,-2,-6,-15,-6,-1,5,2
1523080528705598,-2,-1,-1,5,-1,-2,-6,-4
1523080528712598,-1,-3,-3,7,3,7,5,2
1523080528712598,0,2,-3,-14,-18,3,-1,1
1523080528735624,1,1,-2,4,17,-1,5,2
1523080528735624,-2,-1,3,7,-26,-16,-7,-1
1523080528773651,-2,-1,21,25,-18,-13,3,-1
1523080528773651,0,1,3,-6,24,0,0,-1
1523080528774643,-1,-2,-2,-9,-12,-3,-1,-3
1523080528774643,-2,-3,4,26,-2,-5,-3,-1
1523080528776650,-1,-2,-7,-7,1,-3,-3,1
1523080528776650,-2,0,-7,-11,-2,-4,-4,-1
1523080528778645,-1,-2,5,7,-15,-3,-3,0
1523080528778645,-2,1,1,13,41,4,4,-1
1523080528786661,1,0,-5,-16,-5,0,0,1
1523080528786661,-2,-2,-1,6,-7,-5,-2,-1
1523080528803673,-2,0,7,18,-10,6,-3,-1
1523080528803673,1,0,-5,-28,-22,1,10,1
1523080528804663,0,0,-4,3,-6,-6,-2,-4
1523080528804663,0,-2,0,-5,-51,21,0,0
1523080528816682,3,0,4,4,61,-25,-5,-2
1523080528816682,1,0,-6,-8,-1,4,0,-1
1523080528823697,-3,-1,-2,1,-8,-2,-4,-3
1523080528823697,-2,-1,-2,2,-12,-4,-1,0
1523080528832683,-2,-1,-9,-18,-23,9,-3,-3
1523080528832683,0,1,12,0,0,-6,-7,-1
1523080528846695,-1,-1,-22,5,21,6,-1,1
1523080528846695,4,-2,13,1,0,6,19,6
1523080528855707,-2,1,9,3,14,0,-5,-4
1523080528855707,-3,-3,-9,1,-3,-6,2,-2
1523080528861707,-1,2,7,-6,-8,-7,-5,-2
1523080528861707,-3,-3,-9,3,2,-4,-7,-4
1523080528875724,1,-2,-6,10,26,7,9,0
1523080528875724,2,2,4,-9,-14,-8,-2,2
1523080528883729,-2,1,4,-12,-23,27,1,0
1523080528883729,-1,0,4,5,11,-33,-7,-2
1523080528892728,-1,-3,-3,6,-3,6,0,-1
1523080528892728,-1,-3,-15,-1,-3,4,-5,-5
1523080528906736,-3,-7,-19,-11,-3,-34,-7,-4
1523080528906736,2,5,-8,-5,0,43,8,1
1523080528923748,5,11,40,-7,4,-10,5,6
1523080528923748,2,2,25,28,-15,-10,-3,0
1523080528923748,-5,-9,-3,0,74,-6,1,-3
1523080528923748,-1,-2,-15,11,4,-26,-10,-1
1523080528935766,-4,-5,-34,-14,-32,14,3,-3
1523080528935766,0,6,-2,-11,7,3,-2,0
1523080528943782,5,8,56,-1,-16,14,0,0
1523080528943782,-2,-4,7,-10,0,-6,-5,-3
1523080528952768,-3,-8,-24,11,12,-1,0,0
1523080528952768,-1,-4,-20,-1,-4,6,2,1
1523080528965777,1,-3,-3,11,0,7,3,2
1523080528965777,2,11,61,-13,8,1,0,-1
1523080528974798,-5,-3,9,-7,1,-2,-3,-3
1523080528974798,0,-2,5,4,-18,-14,-1,0
1523080528980803,-1,-3,-34,3,6,14,3,2
1523080528980803,-4,-7,-13,9,24,-10,-3,-4
1523080528995809,-1,4,-29,-11,-37,0,-5,-2
1523080528995809,-2,3,23,-16,3,0,-6,-5
1523080529003868,2,-4,-3,0,11,2,4,6
1523080529003868,2,-2,-22,2,0,13,5,0
1523080529012813,-4,-6,4,-3,-2,-7,-5,-2
1523080529012813,-2,-2,9,8,7,3,1,1
1523080529025830,0,2,-2,-16,-39,-8,-3,-2
1523080529025830,2,7,10,-16,-23,-8,-3,0
1523080529034837,0,-5,-2,13,55,2,0,-1
1523080529034837,-2,-7,-20,1,-17,14,3,0
1523080529040841,2,-2,-38,-2,-19,-3,4,-1
1523080529040841,-21,-11,-8,-4,11,-16,-5,-2
1523080529057859,4,-1,-5,-5,-8,-7,1,1
1523080529057859,-2,6,13,-5,4,2,-3,-2
1523080529063848,-3,9,21,3,0,4,0,-6
1523080529063848,3,0,-17,-3,-42,11,-1,-5
1523080529078869,1,-1,-3,8,3,-20,-3,0
1523080529078869,-5,-6,25,5,17,2,-2,-1
1523080529085873,0,-10,-13,2,-9,0,1,1
1523080529085873,3,4,5,0,2,0,0,-1
1523080529094872,-2,0,1,-6,-3,8,3,0
1523080529094872,1,12,7,-2,-4,-6,-1,1
1523080529100884,-7,-4,22,5,2,-4,-4,-2
1523080529100884,-4,-19,-71,-14,9,3,-1,-3
1523080529115894,10,15,41,4,-42,6,7,3
1523080529115894,2,13,9,4,61,-3,-3,-1
1523080529123905,2,-3,-35,-9,-33,-15,-5,-1
1523080529123905,0,3,40,48,109,10,-2,-3
1523080529138911,-8,-16,-44,-21,-50,1,-2,-2
1523080529138911,3,-1,30,18,1,-2,5,1
1523080529145916,7,25,54,-24,-46,9,9,7
1523080529145916,-13,-25,-47,-20,8,-11,-16,-12
1523080529154912,10,6,2,6,0,-1,-7,-2
1523080529154912,-24,-6,-7,-1,-12,18,22,3
1523080529160916,-6,-15,-2,-4,20,-9,-3,-11
1523080529160916,2,6,-14,23,-13,-2,2,5
1523080529175937,2,8,14,-4,7,-1,0,-1
1523080529175937,5,-9,20,-10,-12,-14,-9,0
1523080529183943,6,0,-30,-24,12,0,0,3
1523080529183943,-3,1,15,-4,-25,22,12,4
1523080529199944,-14,-15,-59,-8,21,-12,-10,-12
1523080529199944,14,16,8,-12,-5,-10,-5,2
1523080529205958,-3,2,-33,17,4,-6,0,-1
1523080529205958,12,8,33,20,23,-5,17,11
1523080529214954,-9,-12,-9,-15,-29,-12,-12,-2
1523080529214954,2,-7,-45,-19,-18,-8,2,-6
1523080529220969,1,1,-6,-14,34,27,-5,-5
1523080529220969,3,12,12,-1,-42,-7,0,-1
1523080529235980,-4,3,14,4,3,-7,-2,0
1523080529235980,-8,-21,-55,-22,5,-15,-10,-6
1523080529243979,4,6,35,60,19,7,-5,2
1523080529243979,8,4,3,-24,-32,-25,-10,-1
1523080529258996,-20,-4,4,9,30,7,24,0
1523080529258996,4,-5,1,-16,-35,53,-11,-2
1523080529266007,-1,0,1,-2,-10,-5,9,5
1523080529266007,-4,-4,-17,6,30,5,10,0
1523080529274997,7,5,19,-1,-7,-26,-19,-5
1523080529274997,-1,-1,-7,7,25,-14,-9,-3
1523080529281015,9,-4,21,2,-7,-9,-1,-2
1523080529281015,-25,-8,-11,-1,-11,19,4,-7
1523080529296023,6,2,3,-4,-9,0,1,5
1523080529296023,4,-2,-8,8,3,-1,3,-4
1523080529304031,-28,-9,-13,0,9,-7,-9,-9
1523080529304031,5,-1,0,4,-17,-12,-7,0
1523080529319061,9,10,24,26,10,20,9,5
1523080529319061,2,-4,5,-20,-16,-16,-11,-6
1523080529326048,-6,-5,-11,-2,9,-63,-14,-4
1523080529326048,5,1,0,-8,7,99,13,9
1523080529335046,-10,-5,-13,-14,6,-15,-4,-4
1523080529335046,1,2,-1,10,-20,-16,-5,4
1523080529341059,7,2,-5,-8,-35,-14,-3,3
1523080529341059,8,-5,5,-8,-1,-26,-16,-9
1523080529356065,-10,-1,13,21,27,27,9,0
1523080529356065,-10,-2,-9,3,-5,-3,6,-1
1523080529364071,23,2,3,-10,3,13,-2,3
1523080529364071,-20,5,-4,-6,3,-13,-6,-2
1523080529379082,9,-4,0,-5,-7,2,-3,-3
1523080529379082,8,-6,-9,41,16,-6,6,7
1523080529386087,50,-8,-24,21,5,32,24,16
1523080529386087,-48,2,73,-109,-13,-22,-1,-7
1523080529395082,-19,-26,-3,58,-7,-15,-11,-10
1523080529395082,25,-13,16,115,17,13,-1,-12
1523080529401097,-107,30,19,35,1,6,-10,-78
1523080529401097,60,-37,-17,5,-12,-16,-2,6
1523080529416108,-34,54,4,-77,4,11,15,41
1523080529416108,41,4,-18,-75,22,5,5,53
1523080529424113,-20,-49,-20,-14,7,9,7,10
1523080529424113,-8,-20,-7,6,2,-10,2,-26
1523080529439118,76,78,63,120,-4,-6,-15,-39
1523080529439118,-118,-31,-16,41,1,13,3,-56
1523080529446129,31,-11,-30,98,-6,-5,-1,8
1523080529446129,21,2,-27,12,-3,4,-3,-5
1523080529455126,-52,-27,43,-97,2,-4,9,27
1523080529455126,33,40,-14,-124,5,2,-15,-9
1523080529477141,36,-45,-1,-119,-4,2,-1,38
1523080529477141,-64,-26,-32,58,-10,-10,0,-28
1523080529479143,2,34,22,51,2,6,-1,15
1523080529479143,21,8,0,-83,7,-2,0,4
1523080529484162,41,-11,-33,13,-2,5,3,-21
1523080529484162,-45,-13,6,-60,-5,-2,2,-4
1523080529499158,51,-7,13,60,7,0,-12,-27
1523080529499158,-24,-28,-6,38,-7,0,9,8
1523080529506163,1,-24,-13,31,-4,1,-8,-45
1523080529506163,-79,95,76,-102,4,-34,-4,104
1523080529515168,92,-35,-98,8,2,-5,-10,-27
1523080529515168,-27,26,72,51,-1,24,31,0
1523080529529178,-5,-24,-62,9,8,-22,-44,-15
1523080529529178,-44,7,33,70,1,18,20,5
1523080529536184,-35,-46,-56,-108,-15,-86,-36,-29
1523080529536184,15,27,-20,-38,-14,52,18,113
1523080529544189,-12,9,0,31,7,-23,4,-10
1523080529544189,23,3,-57,0,21,-34,-15,-62
1523080529558200,-35,-6,32,41,55,-42,-26,-21
1523080529558200,73,-13,-9,48,-16,69,57,50
1523080529566204,62,26,-31,-103,-69,113,50,-29
1523080529566204,75,22,-3,84,-26,-64,-42,-23
1523080529575211,77,22,5,-54,11,99,-17,-10
1523080529575211,21,-52,-51,-25,-69,-128,-60,-128
1523080529589221,-128,-1,-27,-76,-27,127,23,-20
1523080529589221,127,71,60,-24,25,-41,48,-7
1523080529596226,-80,-25,61,-8,-30,-30,0,-14
1523080529596226,-28,16,41,41,56,-41,-78,-65
1523080529612237,-64,-48,-83,30,44,-74,-30,-23
1523080529612237,-57,-102,-95,96,-25,-14,-17,66
1523080529618242,-43,108,84,-58,-100,72,20,-43
1523080529618242,-63,60,-10,-107,51,-76,6,101
1523080529626247,-47,-21,-11,25,32,-128,-86,-32
1523080529626247,14,50,68,-25,15,126,14,5
1523080529635253,19,-22,-74,14,18,-117,36,42
1523080529635253,-23,-34,-13,59,0,-98,-28,-38
1523080529649264,-21,23,-15,8,-9,-10,8,42
1523080529649264,-43,-59,-58,44,-97,-69,-50,-64
1523080529656270,-81,-54,8,28,47,86,49,91
1523080529656270,45,83,19,-54,-70,51,-5,-35
1523080529664275,9,52,104,-14,53,-4,6,35
1523080529664275,-24,-36,3,6,23,53,1,-39
1523080529679285,-3,-34,-62,32,-29,-1,19,13
1523080529679285,-96,-99,-69,47,-9,-60,-10,-42
1523080529686293,54,20,47,94,-18,73,3,93
1523080529686293,122,127,59,-128,-28,93,37,25
1523080529695300,-14,-13,-50,5,94,22,7,-19
1523080529695300,-33,-39,-44,1,-55,-20,-1,-13
1523080529717328,-3,-41,-12,23,-11,-32,-2,-27
1523080529717328,9,-43,-64,69,-1,-80,-36,-38
1523080529719314,-57,35,44,-74,59,-34,-25,-51
1523080529719314,19,14,-4,-30,-16,127,60,-21
1523080529723320,10,11,50,53,13,-43,3,-5
1523080529723320,-10,-44,-56,-68,-3,-18,-2,37
1523080529738330,-54,-89,-35,119,7,-128,-91,-28
1523080529738330,-63,62,116,-79,-17,100,73,-14
1523080529746346,-77,50,20,-124,35,-103,-12,20
1523080529746346,-113,-45,-44,-49,21,-114,-24,-16
1523080529761342,19,5,-54,26,-30,-29,11,38
1523080529761342,-57,-47,-4,100,-4,-79,-57,-34
1523080529769362,37,-7,17,-19,51,-58,-59,-18
1523080529769362,-44,56,12,70,77,61,93,48
1523080529784373,90,45,60,27,17,-88,22,5
1523080529784373,-46,-50,-76,-12,63,-76,-11,24
1523080529785380,122,28,-40,-89,-21,-128,-65,-3
1523080529785380,-32,-9,-35,79,-85,30,43,-1
1523080529798379,106,-7,31,-85,16,-38,-39,-38
1523080529798379,127,32,26,-28,-6,-87,48,40
1523080529806388,-97,-4,6,7,-28,-38,9,-1
1523080529806388,-36,-41,-3,16,34,-46,-56,-48
1523080529821399,-14,9,-29,-120,-47,-39,-11,25
1523080529821399,11,-6,15,99,-32,12,-33,-13
1523080529829405,-67,-57,-56,67,-7,24,41,18
1523080529829405,0,6,35,54,60,9,10,19
1523080529844406,-55,50,60,19,28,52,26,25
1523080529844406,67,31,-24,-27,23,-110,-81,68
1523080529845413,86,-6,-1,41,-31,27,18,4
1523080529845413,30,-11,-23,-31,-12,-33,-34,36
1523080529858422,25,7,-72,-80,1,-24,-8,-2
1523080529858422,120,55,75,-16,54,40,44,6
1523080529866427,2,3,12,-6,-43,-65,45,-22
1523080529866427,2,-25,-2,-45,-72,-128,-54,-33
1523080529881441,-14,-65,-72,5,-11,-123,-85,-52
1523080529881441,-23,23,-49,37,-28,95,71,45
1523080529889448,-19,41,127,-14,5,-69,4,-8
1523080529889448,95,-26,38,-37,36,-128,-24,30
1523080529904458,-66,-5,-35,42,-88,-40,-52,-51
1523080529904458,-62,-94,-119,2,81,-69,-48,-6
1523080529911454,-15,62,96,1,-30,50,2,-15
1523080529911454,53,47,-29,-14,-87,-75,-38,-12
1523080529918465,-65,-47,-32,30,68,-67,-2,-4
1523080529918465,-9,-12,0,-15,0,-25,23,-7
1523080529926460,9,-47,-93,-14,34,-109,-60,4
1523080529926460,-128,-86,-36,5,127,-102,-58,-57
1523080529941481,127,117,96,7,-82,102,120,29
1523080529941481,40,26,57,-14,104,-13,4,-18
1523080529949486,-21,-13,12,-2,63,-61,-56,-20
1523080529949486,-23,-17,-70,-3,-44,-72,-13,-21
1523080529964497,-56,-69,-65,-4,-48,-128,-63,-4
1523080529964497,-12,37,39,20,-128,56,30,7
1523080529965498,-44,8,9,-15,33,-9,65,15
1523080529965498,-6,26,36,-12,-19,-28,-20,10
1523080529979561,-22,19,39,7,-69,24,12,15
1523080529979561,-29,-16,-12,1,34,-37,-34,-16
1523080529994508,12,-11,-21,-1,-1,75,16,-1
1523080529994508,2,1,3,-7,-19,85,21,3
1523080530001523,-7,18,31,7,2,76,24,23
1523080530001523,-21,-5,14,0,13,-16,-37,-39
1523080530009529,29,-4,-23,-8,-20,38,20,25
1523080530009529,10,20,18,4,70,51,29,19
1523080530032535,7,-21,1,4,-40,35,1,-7
1523080530032535,-15,-30,-25,1,-46,-33,-12,0
1523080530033536,-5,9,20,-1,43,34,-4,-1
1523080530033536,10,18,19,1,-37,27,9,-4
1523080530038542,-24,-34,-37,4,109,-7,-12,-16
1523080530038542,-21,-9,-16,0,-43,-45,-25,-8
1523080530046555,-15,6,-5,2,-107,-13,-7,-11
1523080530046555,13,13,23,0,-26,20,2,-5
1523080530070582,24,-15,3,3,82,43,62,62
1523080530070582,-3,23,-2,-3,16,-28,-11,-1
1523080530070582,12,9,8,1,-20,-9,-11,0
1523080530070582,6,10,34,1,61,33,-26,-13
1523080530084572,-9,-8,-8,-3,-2,-19,9,0
1523080530084572,-26,-21,-7,-2,-94,-27,-2,-16
1523080530085573,-3,-7,-23,-5,-34,-8,-35,-5
1523080530085573,6,5,-37,-13,39,-15,68,14
1523080530098582,-2,5,-38,-19,-25,49,-28,-1
1523080530098582,-5,-5,-17,-46,55,27,-37,-24
1523080530106587,3,-1,-25,6,17,-3,48,25
1523080530106587,-9,-24,-64,-11,-49,-2,70,4
1523080530121599,7,4,-18,-8,-28,-56,-14,14
1523080530121599,11,15,28,24,33,43,-5,1
1523080530129605,-3,-9,17,10,20,-6,-48,-17
1523080530129605,3,4,46,5,31,40,-21,-7
1523080530144617,-9,-6,74,34,-19,-21,-6,-17
1523080530144617,-10,-13,77,42,-27,-43,-8,-2
1523080530145616,7,6,98,-15,27,22,5,-4
1523080530145616,11,13,20,-10,3,-5,-4,9
1523080530158627,-8,-8,-46,43,-15,22,3,-18
1523080530158627,14,-3,-72,-21,4,-18,19,29
1523080530166651,-3,1,-108,8,13,3,20,-5
1523080530166651,9,10,0,-4,42,32,2,6
1523080530189647,-1,-10,17,-33,-67,-11,-18,-1
1523080530189647,-18,-9,-1,8,-13,-14,-7,-15
1523080530190648,-4,-4,6,64,-24,-21,-12,-4
1523080530190648,3,14,-1,12,-3,-2,-6,7
1523080530204672,-5,3,-44,-43,57,-27,7,-9
1523080530204672,2,-7,-30,-18,-62,75,16,8
1523080530205663,8,0,2,-1,-5,26,7,7
1523080530205663,3,-3,-5,-30,18,17,-11,-2
1523080530218707,-10,0,4,-16,2,5,16,-16
1523080530218707,-5,-7,8,15,16,-48,-11,-3
1523080530226690,-6,-1,-12,-15,6,-2,-16,-7
1523080530226690,3,-2,29,5,-10,16,5,5
1523080530241713,9,7,15,24,7,-3,4,1
1523080530241713,1,-3,-26,-24,20,-7,6,9
1523080530249690,-2,9,33,-16,13,22,10,-2
1523080530249690,-13,-15,0,25,-42,-22,-39,-9
1523080530264714,0,-4,-2,16,-1,11,13,-1
1523080530264714,9,7,14,29,7,-9,3,1
1523080530265700,-14,-7,-4,-12,11,-10,14,-11
1523080530265700,2,2,-1,22,-21,-32,-12,-1
1523080530278724,0,-1,-2,4,-2,23,-9,4
1523080530278724,-3,8,9,-21,24,16,2,-16
1523080530286731,-1,-11,-16,-14,-16,-10,-5,-20
1523080530286731,-8,6,-1,2,0,-4,10,67
1523080530309735,18,6,11,-9,-1,1,-4,-13
1523080530309735,2,2,3,-14,10,-21,0,0
1523080530310732,-9,-10,-11,-12,-8,4,-2,24
1523080530310732,-8,-1,3,21,-21,-9,-8,-13
1523080530324757,5,9,50,27,8,6,15,17
1523080530324757,4,8,7,0,9,-6,-26,0
1523080530324757,9,-6,0,22,-1,11,44,13
1523080530324757,-3,-2,-6,-8,7,-4,4,-14
1523080530338767,-13,-5,-23,-3,-11,-6,-53,-10
1523080530338767,1,0,6,2,-1,-7,43,7
1523080530346758,-4,-2,1,-9,3,5,-10,-5
1523080530346758,34,-1,-1,-1,-12,4,5,-45
1523080530368786,-45,-9,-13,-55,-6,2,13,-87
1523080530368786,-5,-3,-2,-5,-1,-3,-24,-29
1523080530376779,19,10,-10,-14,8,-8,1,69
1523080530376779,-11,-8,6,-5,7,-4,-5,-15
1523080530383796,2,-2,-16,1,-9,-6,-19,-4
1523080530383796,-10,-17,1,17,-4,0,6,-21
1523080530391803,0,3,0,-21,0,5,17,-60
1523080530391803,6,4,-9,-24,1,-1,-11,54
1523080530398809,8,2,4,12,11,2,11,25
1523080530398809,-3,-2,-3,-15,-9,-23,-25,2
1523080530405814,-41,-13,-13,14,-10,-1,-9,-27
1523080530405814,19,-12,-13,32,-20,-12,-9,67
1523080530420811,19,6,-28,-15,20,31,39,123
1523080530420811,47,23,41,-29,16,3,7,11
1523080530429818,-14,5,-2,-7,9,2,-12,-6
1523080530429818,-7,-14,-6,-13,-13,-11,-14,-60
1523080530443829,-20,-8,-15,-4,-13,-10,-4,-44
1523080530443829,-43,-12,-18,12,3,4,8,56
1523080530451847,48,5,17,-16,-8,-7,-5,1
1523080530451847,-30,4,-3,-25,4,-7,5,-22
1523080530467856,13,-3,-6,-28,14,24,8,7
1523080530467856,2,-5,-3,28,-7,-6,-6,-19
1523080530467856,-7,-3,9,11,-10,-8,-8,1
1523080530467856,-12,-4,-14,-20,9,3,10,-2
1523080530480867,31,0,27,3,-7,-3,0,-21
1523080530480867,-38,12,-23,-5,-2,-4,-8,-7
1523080530489888,2,-3,-1,-2,3,1,0,8
1523080530489888,-2,5,-7,-3,2,0,-7,-13
1523080530503884,-46,-14,-28,61,-1,1,0,-28
1523080530503884,32,-18,28,-56,-5,4,3,-4
1523080530511889,52,33,3,-117,10,1,4,63
1523080530511889,43,-28,14,79,7,0,0,-34
1523080530526887,-106,-3,-8,-24,-2,-6,-11,0
1523080530526887,53,-6,-43,-2,-3,-7,-3,-32
1523080530527887,13,-47,-38,10,-5,-12,-15,39
1523080530527887,37,35,49,-29,-10,8,17,10
1523080530540896,23,0,26,112,18,-9,-7,-4
1523080530540896,-32,-7,-3,-35,-2,5,-1,-2
1523080530549905,-15,-6,-22,-68,11,17,30,-11
1523080530549905,7,-17,-4,84,-13,-27,-11,5
1523080530563926,-7,-1,-3,-112,-29,0,1,27
1523080530563926,8,20,10,26,-13,-12,-14,17
1523080530571932,-13,0,20,94,8,-87,-62,-25
1523080530571932,58,19,4,-16,1,109,94,-27
1523080530586945,-47,-2,-36,-14,-1,-35,-21,-75
1523080530586945,25,-5,16,-105,0,1,6,-71
1523080530587940,11,19,8,107,-3,-17,19,-33
1523080530587940,-88,15,1,-38,12,-56,-50,64
1523080530600949,65,6,26,-49,64,-89,-35,-12
1523080530600949,18,-2,-22,30,-36,97,88,23
1523080530608954,-8,8,17,19,-18,-89,-5,-57
1523080530608954,-35,-13,-29,-24,-11,-50,-5,-33
1523080530623965,21,1,45,61,-17,-1,11,28
1523080530623965,-55,-14,-22,24,30,-128,-66,-4
1523080530631972,3,2,2,-11,-16,127,32,17
1523080530631972,8,-1,-19,-25,-34,-43,-10,22
1523080530646981,5,-5,-29,-16,-2,-20,22,8
1523080530646981,13,-1,7,24,11,-23,-17,-4
1523080530647983,-17,-1,13,-10,-4,-3,-30,4
1523080530647983,-3,-6,-20,-47,22,-1,-3,-5
1523080530660983,16,-1,-20,-13,-18,36,-6,-7
1523080530660983,-12,5,2,15,8,33,31,13
1523080530668997,-10,-7,-13,-6,13,-7,-36,-50
1523080530668997,-8,-1,37,4,0,6,-55,24
1523080530684011,22,16,7,-7,-5,32,100,58
1523080530684011,4,0,-10,0,10,6,-9,27
1523080530692017,-2,-3,-35,-39,2,-22,-27,-12
1523080530692017,-10,0,-10,22,13,27,-35,-23
1523080530707028,47,0,4,10,-25,-26,-16,-47
1523080530707028,-39,1,13,8,14,-2,42,64
1523080530708028,6,1,8,-17,-1,28,43,-7
1523080530708028,5,-4,3,-2,-4,-41,-27,-21
1523080530721038,-33,-3,-17,-5,-10,48,-1,15
1523080530721038,-18,1,-23,4,1,-20,-27,-18
1523080530729044,17,4,7,-7,-7,-34,-15,18
1523080530729044,18,1,-4,-15,2,8,21,2
1523080530744041,-10,-1,7,-3,7,-14,-37,-9
1523080530744041,12,-8,5,16,-9,-10,1,-16
1523080530752046,-18,-5,7,5,-19,40,54,37
1523080530752046,-2,3,9,-7,1,-1,16,-6
1523080530767071,7,-5,5,7,-1,-3,-8,0
1523080530767071,5,-5,-19,-2,-8,-7,-26,-7
1523080530768071,6,13,34,17,11,-10,-9,9
1523080530768071,-48,-1,-7,5,7,15,26,-1
1523080530781077,39,1,-4,11,7,-21,-12,13
1523080530781077,-24,-6,-8,2,2,15,-12,-26
1523080530789086,7,5,9,7,-1,11,7,7
1523080530789086,2,-6,-5,-7,-13,-29,14,-4
1523080530804093,-24,-11,-8,-4,-6,36,-7,1
1523080530804093,7,12,2,-3,-7,37,-11,26
1523080530812089,-32,-9,-8,-12,-34,-30,3,-15
1523080530812089,20,1,9,-19,11,9,-8,-9
1523080530826118,-3,4,-2,7,19,-32,-8,2
1523080530826118,-12,-4,11,6,1,-6,6,-5
1523080530835106,-9,-8,-16,0,12,-14,-18,-3
1523080530835106,8,4,-8,11,-1,-3,4,21
1523080530841130,-3,-7,11,-12,-23,-2,-10,-18
1523080530841130,31,11,25,5,12,6,7,13
1523080530850115,-27,-5,-18,-10,30,-10,-9,1
1523080530850115,5,-5,-10,1,-27,15,12,-3
1523080530864136,51,0,6,21,-13,-13,4,1
1523080530864136,-29,6,6,16,25,-15,-14,-20
1523080530873143,-14,-11,-25,-50,13,-11,12,15
1523080530873143,22,8,4,14,-23,29,20,4
1523080530886147,-18,-2,-4,-31,-7,-26,-17,0
1523080530886147,14,-13,-17,-26,-5,-75,-26,-13
1523080530895147,19,-2,11,28,-12,82,40,8
1523080530895147,-27,-9,-4,-12,5,-47,-22,-25
1523080530901162,-21,3,-19,-21,-3,-14,-4,16
1523080530901162,9,0,7,-2,-14,3,3,-4
1523080530910159,3,4,10,25,18,-12,-12,-6
1523080530910159,-2,2,-3,-7,9,3,0,4
1523080530924206,-4,6,19,22,19,33,8,0
1523080530924206,-25,-14,-14,22,-36,-14,-19,-19
1523080530933185,-2,-1,0,-3,-25,-15,-13,-32
1523080530933185,64,-3,-11,-4,8,24,8,-14
1523080530946184,-18,8,5,4,17,-2,20,22
1523080530946184,0,14,12,6,9,9,-10,0
1523080530955190,4,7,-9,-41,-2,13,10,-5
1523080530955190,-11,-7,1,15,-3,-7,-10,-62
1523080530961196,-5,-5,4,-1,12,7,11,1
1523080530961196,9,-13,-27,-32,10,8,1,-80
1523080530970201,23,2,1,-1,-42,-30,5,81
1523080530970201,4,6,-1,-37,21,-2,-11,1
1523080530984228,-23,3,-10,3,6,7,-7,-19
1523080530984228,3,12,-13,-7,3,15,16,-12
1523080531000222,11,1,7,37,17,-20,-18,-39
1523080531000222,-18,-3,-1,-23,0,-3,-4,9
1523080531006238,12,-8,-2,-16,-11,-4,-22,-2
1523080531006238,-3,-11,13,44,-11,16,46,13
1523080531023238,-8,0,9,-6,-7,-5,-8,-6
1523080531023238,-5,2,11,21,-6,-2,2,20
1523080531024241,1,-4,3,19,-9,-4,-11,-23
1523080531024241,-2,3,20,27,14,1,-36,9
1523080531030243,8,-6,-16,6,-39,-17,12,20
1523080531030243,-12,-2,-4,13,5,30,57,22
1523080531044253,2,-2,-10,-5,-17,-12,1,-2
1523080531044253,27,4,2,-39,5,18,4,8
1523080531053280,-28,6,-4,-23,18,-11,-33,8
1523080531053280,29,-14,-14,-20,4,-17,-22,-81
1523080531066283,-64,5,-2,-23,3,-8,19,-9
1523080531066283,11,9,3,-24,16,28,16,26
1523080531075277,-18,-15,-17,-25,-19,-12,-16,-50
1523080531075277,-5,-26,-4,18,-16,1,10,-95
1523080531081283,114,24,14,-31,5,8,36,101
1523080531081283,55,34,22,-32,12,-14,-5,-119
1523080531090288,30,-8,11,74,20,0,-1,-63
1523080531090288,-108,10,-6,-34,0,-12,-27,-12
1523080531103306,24,-24,18,74,-21,7,-13,-55
1523080531103306,39,-57,-15,-66,-27,-14,4,87
1523080531112330,27,44,-12,-90,7,2,-3,7
1523080531112330,-9,75,49,96,-4,-12,1,1
1523080531126328,46,9,22,40,39,18,-9,34
1523080531126328,-68,-75,0,-63,0,-6,16,-41
1523080531143326,-17,-27,-12,-9,-15,4,-11,-103
1523080531143326,-10,-22,-10,-93,-29,-20,7,92
1523080531144326,-43,95,-42,-127,14,2,-19,40
1523080531144326,37,127,71,33,17,5,7,83
1523080531150330,18,-62,-50,40,-12,3,53,127
1523080531150330,-56,-11,38,51,10,5,-66,-108
1523080531163341,19,91,-49,-34,7,-7,-6,48
1523080531163341,-2,-44,3,70,20,3,-11,-43
1523080531172344,113,-44,-11,-7,20,-8,0,-48
1523080531172344,10,43,26,83,5,19,25,67
1523080531186364,-26,-10,-26,-17,-31,2,21,-79
1523080531186364,-125,-29,8,-9,-43,-6,-3,-72
1523080531195362,15,57,59,-25,1,3,20,-103
1523080531195362,127,33,-37,-55,17,19,21,74
1523080531201375,30,-128,-8,-31,21,-8,-9,-91
1523080531201375,28,56,23,-35,18,-2,11,-75
1523080531210371,-62,5,-5,92,13,1,-14,-22
1523080531210371,-106,-61,-16,-72,-16,-20,-15,17
1523080531223391,27,5,31,-28,-17,-7,17,-31
1523080531223391,60,-9,-68,4,7,8,0,-4
1523080531232411,-47,8,25,-23,4,3,-1,-38
1523080531232411,-75,-14,25,18,-1,-22,-9,-53
1523080531246408,-128,-128,-32,71,-12,-3,6,9
1523080531246408,77,67,15,-75,5,7,-18,35
1523080531262408,-28,47,20,-21,8,8,-11,52
1523080531262408,-37,-72,-41,-17,8,1,5,-39
1523080531262408,37,49,23,122,-18,1,3,-123
1523080531262408,-46,-51,-11,11,-18,-14,-1,-68
1523080531270422,24,12,-1,-63,0,17,8,23
1523080531270422,36,-15,-2,-29,8,19,2,-18
1523080531283423,-18,-36,25,-3,-6,-3,-21,-36
1523080531283423,-8,3,-2,3,-28,-15,-12,39
1523080531298444,10,0,-21,-48,8,7,12,31
1523080531298444,24,-18,-13,-90,2,-49,-31,-30
1523080531306450,1,20,7,-20,29,85,12,15
1523080531306450,-15,-8,-28,-36,-41,4,12,40
1523080531315447,-37,-32,-9,21,-1,-74,-32,-10
1523080531315447,29,20,2,43,-7,63,19,10
1523080531321461,6,10,9,-23,33,-94,-21,29
1523080531321461,-20,-26,-36,47,-27,80,-1,11
1523080531330474,6,5,32,32,-4,-49,1,-6
1523080531330474,29,16,12,53,-16,-20,11,15
1523080531343468,1,1,-7,53,-7,-37,-6,4
1523080531343468,-38,-34,-4,51,6,-10,-13,-8
1523080531352472,-22,-3,-2,-8,17,-4,-10,-6
1523080531352472,34,18,-19,-115,20,-6,-2,10
1523080531366496,-29,-7,19,-106,-19,-20,-18,-4
1523080531366496,0,1,7,-47,-33,23,25,15
1523080531375502,-6,2,-13,-91,16,24,14,24
1523080531375502,0,0,7,-22,1,-8,-9,-8
1523080531390509,2,-13,-16,22,0,-4,-9,-8
1523080531390509,-8,0,12,30,6,-66,-29,6
1523080531391504,-1,-5,-7,-17,-7,77,16,0
1523080531391504,11,1,-6,18,16,40,11,-5
1523080531403519,-4,-3,-20,-32,-30,-42,-25,-7
1523080531403519,12,7,15,-7,70,1,13,1
1523080531418530,-21,-6,1,38,-26,21,22,45
1523080531418530,9,2,1,59,38,17,7,-18
1523080531426525,2,-1,-7,-44,-9,35,-22,-19
1523080531426525,-19,-10,-26,-21,-22,-32,24,20
1523080531435548,51,0,1,5,8,-2,-27,-80
1523080531435548,16,5,4,-6,24,17,-9,-3
1523080531450556,-1,3,12,-14,16,1,55,-11
1523080531450556,-6,1,-10,5,-35,-25,-42,43
1523080531451543,27,-7,11,51,-8,4,-22,-66
1523080531451543,76,35,16,-11,-14,3,100,112
1523080531463561,12,-3,6,-24,17,40,-9,18
1523080531463561,2,47,-14,21,64,-8,3,-50
1523080531472558,-20,-14,-4,-40,-8,-3,-22,-34
1523080531472558,-32,-16,-16,7,-46,-36,-39,-40
1523080531486578,5,-5,-14,-2,-25,7,16,18
1523080531486578,13,-17,-20,-23,-26,-15,-4,-21
1523080531495575,-24,-5,10,27,43,-3,-5,14
1523080531495575,-11,4,1,58,-27,-8,-9,-7
1523080531510584,10,6,10,90,-37,12,19,3
1523080531510584,-4,-8,6,50,8,4,-4,-7
1523080531511587,-10,-1,-12,-5,3,-5,-1,24
1523080531511587,-10,-18,-7,-67,17,-61,-14,-4
1523080531523605,3,10,11,-45,6,51,-2,-7
1523080531523605,-7,-10,13,-26,11,2,10,10
1523080531532610,3,2,1,-40,-15,-21,14,35
1523080531532610,25,-4,-4,-36,-29,-2,-13,-48
1523080531546623,-3,0,-4,-17,-6,-34,-22,-11
1523080531546623,-1,2,-2,2,13,10,5,14
1523080531555627,24,104,23,16,-5,12,5,-39
1523080531555627,21,114,-24,-70,20,-7,-16,-32
1523080531577649,15,61,-107,-113,55,9,5,7
1523080531577649,-1,-33,-125,-128,14,2,6,-4
1523080531579633,-17,-101,-22,76,-17,-9,-3,-9
1523080531579633,-25,-128,101,127,-81,0,-10,-1
1523080531583656,91,99,127,50,-33,-10,0,4
1523080531583656,1,116,56,101,-19,13,1,-8
1523080531592644,-50,120,-72,-113,8,6,2,30
1523080531592644,-33,120,-96,-50,33,5,-2,4
1523080531606654,8,56,-74,99,-11,1,4,-40
1523080531606654,-1,1,-51,-31,-5,-17,-10,12
1523080531615659,21,-3,-14,35,8,7,4,1
1523080531615659,-27,-38,-13,-64,25,4,-4,4
1523080531629669,-16,-59,0,-119,-11,-11,-4,-10
1523080531629669,27,-19,-6,-52,3,15,-2,-15
1523080531631670,-9,-45,-8,-57,-9,1,5,8
1523080531631670,14,-22,14,57,4,8,-1,-9
1523080531643679,-29,-53,1,104,12,-3,-3,7
1523080531643679,-10,-27,42,47,-8,-7,-2,0
1523080531652687,-5,-35,15,-7,-21,0,0,6
1523080531652687,2,-12,-20,-24,14,-10,-4,11
1523080531666697,-24,-27,-3,-64,23,-25,-16,-1
1523080531666697,-10,-28,5,-60,-69,25,9,0
1523080531675702,36,-15,-11,-11,21,-8,-3,-39
1523080531675702,-11,9,1,-33,5,1,2,8
1523080531697718,3,-27,-25,-24,9,-1,-4,-59
1523080531697718,-79,1,12,-19,31,-12,5,79
1523080531699730,23,-2,4,4,-11,-3,-6,-27
1523080531699730,1,-10,0,7,-14,-1,-4,-25
1523080531703736,-19,-10,7,6,7,3,6,8
1523080531703736,9,-7,-5,20,11,3,2,-16
1523080531712728,19,-5,-1,14,-16,3,4,41
1523080531712728,-33,6,-7,3,11,4,-1,35
1523080531726738,-4,-15,-11,1,-21,2,2,-17
1523080531726738,50,12,21,39,5,1,6,78
1523080531735756,-12,38,5,13,11,6,2,-5
1523080531735756,20,-12,-6,2,2,3,-5,-25
1523080531749775,-15,-3,-9,-5,-7,5,-13,3
1523080531749775,27,-9,14,28,9,-8,-16,-118
1523080531751757,-42,-17,-15,-16,-15,-8,28,14
1523080531751757,15,12,-9,-10,-5,7,-5,30
1523080531763774,-7,3,7,-3,-1,-7,1,8
1523080531763774,7,-9,0,0,6,-40,-18,-22
1523080531772772,-3,-5,4,18,-8,9,1,32
1523080531772772,-16,-13,-13,-11,-22,15,-12,-36
1523080531786781,-17,-13,9,23,35,-18,4,-47
1523080531786781,29,2,-5,19,-32,14,51,64
1523080531794806,2,0,-9,-7,12,14,33,27
1523080531794806,2,0,-4,20,-1,-15,-38,-1
1523080531808798,40,16,43,12,-13,15,12,86
1523080531808798,-20,-5,-5,-12,17,-10,-38,11
1523080531817809,1,-1,4,11,-2,-13,-27,-29
1523080531817809,-11,-3,-4,5,-5,-7,23,0
1523080531823808,-19,-6,-25,-17,-6,23,-15,-46
1523080531823808,-1,-4,-8,0,2,-16,-3,-42
1523080531832825,3,-3,7,-2,7,21,-8,-3
1523080531832825,4,-10,-27,-47,10,7,1,-19
1523080531854839,1,-7,-14,-29,3,-4,10,31
1523080531854839,8,-8,-18,-38,5,8,27,-25
1523080531856844,-10,-7,-4,-44,15,-8,-16,-20
1523080531856844,2,-14,-8,-25,1,-20,-46,-13
1523080531869850,15,-2,-14,-38,-4,6,24,-9
1523080531869850,-26,-1,0,-29,3,16,3,-16
1523080531871850,0,-6,-9,-22,5,-4,-14,-70
1523080531871850,43,7,7,5,23,-37,72,98
1523080531883860,-1,-8,-20,-7,1,32,6,36
1523080531883860,-9,-4,0,5,7,27,-33,-48
1523080531892856,-13,-8,-2,14,-5,-12,-18,-35
1523080531892856,-8,-3,-9,0,-15,-11,-9,-47
1523080531905879,-17,-7,-25,13,-12,-20,-8,14
1523080531905879,7,10,44,27,3,8,13,8
1523080531914871,2,0,-2,12,-3,-14,-9,32
1523080531914871,-2,2,10,19,-2,21,4,-21
1523080531929902,-24,-2,4,28,4,-3,3,3
1523080531929902,9,1,-6,26,-29,-6,-10,24
1523080531931885,14,-5,9,0,-7,2,12,14
1523080531931885,-8,14,0,22,0,11,5,-7
1523080531943893,-10,0,17,24,-4,-5,-10,-18
1523080531943893,0,1,-3,0,6,-16,-4,-4
1523080531952910,4,4,-9,8,-7,9,4,21
1523080531952910,-5,6,21,13,-1,5,4,2
1523080531965918,-2,4,5,-5,0,-3,-10,-6
1523080531965918,3,-9,-11,-1,0,4,4,-11
1523080531974924,-1,-3,-10,12,-16,-13,-6,-31
1523080531974924,8,-8,-9,-3,2,18,11,63
1523080531989928,30,6,32,-11,-2,2,8,11
1523080531989928,-23,9,2,17,-1,-12,-11,-2
1523080531991927,-17,7,12,12,-1,-1,5,13
1523080531991927,-7,-1,-18,-1,-2,0,-11,-42
1523080532003938,0,1,6,7,-8,-6,-3,-3
1523080532003938,12,0,0,11,-7,3,4,12
1523080532012942,2,1,1,-7,4,1,1,1
1523080532012942,-3,-3,3,15,-8,0,-2,19
1523080532025951,-25,9,15,11,-4,-10,-7,-9
1523080532025951,30,5,-3,-20,2,0,-3,-25
1523080532034956,13,3,-3,-3,5,4,7,46
1523080532034956,6,2,4,15,0,-12,0,-5
1523080532049981,-6,-6,0,25,5,45,17,3
1523080532049981,-12,1,8,10,-1,32,18,-3
1523080532051980,3,0,-1,-1,-20,19,-14,-22
1523080532051980,-6,-5,9,23,15,-36,-18,-4
1523080532063978,-2,1,-6,-2,-26,-63,-10,-5
1523080532063978,2,4,1,25,-6,58,15,7
1523080532072985,8,3,14,52,24,65,35,21
1523080532072985,-14,1,8,-11,-4,-7,-8,-16
1523080532086159,2,-1,-18,-18,-10,-26,-15,-1
1523080532086159,2,-4,-4,10,-19,-58,-28,16
1523080532094999,-5,-4,4,2,2,-18,3,19
1523080532094999,-5,2,9,-10,23,18,-11,-22
1523080532110012,-13,-6,-33,-54,-3,11,-2,-51
1523080532110012,-23,-17,-31,-63,15,-12,-13,-27
1523080532112032,-76,-14,-34,-83,24,1,-1,62
1523080532112032,84,37,-12,-41,20,17,23,90
1523080532133047,28,-24,6,3,25,7,2,10
1523080532133047,-27,12,-34,-9,32,1,-4,-44
1523080532134047,-4,-14,-8,-7,6,-19,-16,-76
1523080532134047,-31,-9,-6,-14,-53,-2,1,-55
1523080532146035,-47,-17,0,45,-23,6,-8,-80
1523080532146035,57,27,27,46,-2,-14,11,90
1523080532155044,12,-11,24,-2,16,-10,6,-25
1523080532155044,-2,-4,6,-12,8,-3,-16,-30
1523080532170054,5,4,-13,-56,-2,18,21,10
1523080532170054,-19,-30,-15,31,16,-10,-11,-63
1523080532172056,4,-26,-14,-33,-18,-15,-5,49
1523080532172056,-33,6,-32,16,11,14,7,-75
1523080532184063,49,22,-15,-26,24,-4,-5,84
1523080532184063,22,18,1,-24,2,-10,3,46
1523080532193069,31,-16,-4,-29,-4,9,12,11
1523080532193069,-18,-19,-14,-35,-7,-4,-8,-31
1523080532206093,-14,1,3,-10,-5,-8,-4,-10
1523080532206093,-29,-23,12,-18,-19,-6,0,-60
1523080532215085,26,27,-16,-37,-1,-10,-33,-91
1523080532215085,29,-2,-3,-54,29,14,43,78
1523080532230120,-7,1,-9,28,23,7,-15,-47
1523080532230120,24,-8,-6,-77,3,-10,-1,27
1523080532232118,-33,-4,-16,10,13,-17,2,-60
1523080532232118,-22,2,3,15,-9,27,4,-6
1523080532253112,24,2,9,88,-9,18,19,48
1523080532253112,-29,3,61,77,-43,-19,-10,-33
1523080532254114,-5,15,50,120,-22,-26,-43,-2
1523080532254114,22,-9,38,91,-35,-16,50,39
1523080532266121,-4,2,-9,-8,-51,-16,-20,4
1523080532266121,-9,-12,10,75,-11,16,-13,-22
1523080532275127,9,45,34,23,-25,-5,13,20
1523080532275127,18,-5,13,98,9,16,-1,10
1523080532289138,-35,-13,-20,-66,9,2,-8,-27
1523080532289138,-2,16,4,-16,16,6,5,22
1523080532296142,39,0,-35,-58,-4,-3,4,22
1523080532296142,-15,-30,-53,-63,1,-1,-16,-26
1523080532304149,-2,12,37,16,1,-5,9,68
1523080532304149,-6,12,-22,36,3,-10,-8,-39
1523080532313167,18,14,7,9,15,20,25,40
1523080532313167,-12,-4,8,20,5,-3,-16,-23
1523080532327164,4,-25,7,78,7,1,-2,-18
1523080532327164,5,-26,-49,-31,5,8,3,0
1523080532334169,-2,23,-11,127,-2,-4,-8,-54
1523080532334169,4,48,24,-69,-26,-12,-3,67
1523080532350181,-10,-7,58,49,-1,-5,-6,-76
1523080532350181,-5,-78,2,-71,-21,-3,0,-17
1523080532356187,11,17,14,-54,-1,7,3,3
1523080532356187,36,26,-62,-78,1,-7,-9,38
1523080532372199,33,26,-28,-74,4,-1,-2,-3
1523080532372199,-43,40,8,-112,19,5,3,-9
1523080532374198,-11,-35,-27,-119,5,-6,-7,-29
1523080532374198,-83,-63,30,-29,4,2,-7,-91
1523080532395213,49,-2,-14,-98,12,6,17,92
1523080532395213,46,48,-12,-12,-2,-8,2,11
1523080532397218,14,17,-2,-54,-8,-2,10,91
1523080532397218,9,-24,-9,-18,-1,-4,-10,-44
1523080532410224,-37,-9,13,-9,1,-5,-11,-63
1523080532410224,-22,-11,-8,7,2,3,-2,-22
1523080532416228,4,-26,-8,-53,-1,2,1,1
1523080532416228,-1,18,21,-5,-13,-6,-9,-16
1523080532432239,-13,0,12,41,11,1,6,-1
1523080532432239,32,16,10,-2,4,2,2,25
1523080532434240,-21,-6,-30,-9,6,-1,-3,-15
1523080532434240,8,2,-28,0,3,-2,-4,-14
1523080532447252,11,9,-21,4,-3,-4,-3,-11
1523080532447252,-16,-9,0,0,0,3,7,35
1523080532453253,2,-7,-5,27,-10,-5,-4,-13
1523080532453253,-5,5,14,21,4,0,-2,-1
1523080532469266,11,6,12,11,-1,3,6,-5
1523080532469266,19,0,15,1,-2,-5,-5,-31
1523080532476270,-22,-10,16,7,-7,-3,-3,-19
1523080532476270,0,12,11,59,-6,4,4,12
1523080532492282,-8,4,10,26,-14,-8,-7,-2
1523080532492282,-5,-6,11,48,-6,1,-1,-15
1523080532494283,3,7,21,50,-28,20,25,2
1523080532494283,11,4,21,23,-8,-8,-6,-3
1523080532506291,-8,-3,-11,-17,6,-10,-6,-1
1523080532506291,-1,-6,-10,-7,1,33,6,-16
1523080532515298,-3,2,-8,7,-5,-9,-9,13
1523080532515298,4,-6,-22,-4,4,0,-4,0
1523080532530309,-19,1,5,-20,9,9,1,-3
1523080532530309,9,1,-15,-22,10,-1,-2,12
1523080532536313,-2,-1,-3,21,18,1,-13,-11
1523080532536313,1,-2,-13,-29,-5,1,7,-3
1523080532552324,3,-2,-20,-34,-10,-16,-4,6
1523080532552324,-2,-2,9,31,-9,1,-9,2
1523080532554326,-5,-3,-9,9,18,-16,11,-2
1523080532554326,-1,2,7,-38,-4,18,14,8
1523080532566334,3,2,8,29,2,31,10,4
1523080532566334,-5,0,-29,0,2,-31,3,9
1523080532575341,-2,-6,1,-78,9,-73,-43,-16
1523080532575341,0,7,2,37,-9,48,6,-3
1523080532589350,-7,-1,-5,8,4,24,21,5
1523080532589350,1,-6,-9,5,0,-15,-17,3
1523080532596356,0,-1,6,28,7,35,9,-5
1523080532596356,2,3,16,0,2,9,26,8
1523080532612367,-3,-5,-14,-9,11,-25,-19,-7
1523080532612367,0,3,0,-4,-3,16,-11,0
1523080532614370,-1,-6,-6,10,-8,-33,-14,0
1523080532614370,2,2,6,-5,6,-2,19,1
1523080532626377,4,-3,-17,6,-2,15,-3,1
1523080532626377,-4,1,7,3,1,-21,5,-1
1523080532635384,-5,-4,9,-26,-13,11,-27,-11
1523080532635384,-3,-4,-20,7,-4,-2,21,3
1523080532649393,0,0,-2,-21,5,-14,5,5
1523080532649393,-2,0,7,-5,1,-7,-12,-8
1523080532673410,-1,4,9,2,1,1,4,2
1523080532673410,-4,-4,-2,3,-1,18,-23,-4
1523080532674411,0,0,-8,-7,9,6,7,0
1523080532674411,-5,-4,-1,-6,-2,-2,6,7
1523080532675412,-5,-7,-4,3,2,21,12,-24
1523080532675412,7,-6,-2,1,8,-52,-30,18
1523080532686419,-1,6,1,4,-5,7,3,7
1523080532686419,5,-7,4,-13,-7,10,9,-7
1523080532695427,-5,-2,-10,-4,-10,-7,2,-3
1523080532695427,-7,-13,-2,-15,1,-15,-15,-9
1523080532709446,1,19,10,-3,-3,2,0,-10
1523080532709446,-3,-6,-9,-3,9,7,9,8
1523080532716442,4,-14,-8,-3,3,1,2,-3
1523080532716442,4,12,5,11,2,0,-1,-7
1523080532732452,-1,-8,-4,-8,-4,-1,-2,24
1523080532732452,-2,6,8,5,0,-11,-4,-5
1523080532734454,6,16,12,12,6,-1,9,13
1523080532734454,-1,-8,-2,11,1,20,-2,-12
1523080532746463,-4,-7,-3,-6,-6,10,0,-14
1523080532746463,-19,2,-6,3,-12,-4,-2,-12
1523080532755468,22,-3,1,-10,-10,5,2,-9
1523080532755468,1,2,-6,-8,10,-14,-8,-6
1523080532769478,-2,-2,9,5,5,-15,-4,32
1523080532769478,5,-12,-13,-4,1,9,7,-5
1523080532776484,-6,-2,15,18,-8,3,5,25
1523080532776484,-9,4,0,-8,0,-17,-10,-11
1523080532792495,0,5,-1,2,-10,-8,-9,-18
1523080532792495,-2,-12,-1,5,-3,3,6,-6
1523080532794498,-9,-5,-6,-7,-3,1,2,7
1523080532794498,2,5,3,-6,-4,-11,-3,-2
1523080532806505,-2,-7,-7,6,-1,1,-1,-5
1523080532806505,4,5,7,1,1,6,4,13
1523080532815511,-3,-1,-13,-12,3,3,-2,-5
1523080532815511,-1,-2,-4,4,-1,-2,-2,6
1523080532829522,-4,-2,2,7,-3,-5,-2,-19
1523080532829522,-8,-7,-2,-16,4,-2,0,-4
1523080532836526,17,-2,0,10,0,0,-4,4
1523080532836526,-14,-9,-6,3,-2,-12,-2,26
1523080532852537,14,4,8,-2,-9,-2,7,11
1523080532852537,6,2,-9,-2,-4,8,24,10
1523080532854539,-19,3,-3,9,2,11,-12,-37
1523080532854539,-16,-4,-5,6,-9,-6,-14,-30
1523080532866549,18,2,-6,-20,2,-14,-15,13
1523080532866549,22,9,10,10,-3,-6,-9,50
1523080532875555,-9,-1,4,11,-3,-4,25,-5
1523080532875555,7,-1,-7,-12,13,24,3,-2
1523080532889564,-17,-3,-4,8,-12,-3,-2,-31
1523080532889564,-3,5,3,16,-3,-5,-3,-13
1523080532896569,5,-13,-2,-15,-6,-9,-7,14
1523080532896569,2,4,-4,6,8,-4,-2,-10
1523080532912580,3,-18,-4,29,0,-6,-2,-5
1523080532912580,-7,15,2,36,3,0,-13,-1
1523080532914582,3,1,-13,-40,14,13,11,12
1523080532914582,3,0,3,-12,-19,-11,-9,4
1523080532926590,-7,-3,0,-31,-3,2,25,-2
1523080532926590,35,1,-5,-36,3,-7,-18,-24
1523080532952608,-28,-12,-1,15,-2,2,10,10
1523080532952608,32,0,10,36,8,-1,-10,17
1523080532952608,-21,3,-5,-12,0,4,3,11
1523080532952608,4,-3,0,4,-5,-3,7,-4
1523080532963617,-13,2,1,8,-9,-6,-13,-45
1523080532963617,-15,-20,5,-1,-5,1,5,20
1523080532988635,34,57,0,-10,9,-3,-6,26
1523080532988635,-16,-12,-23,-12,8,5,6,-8
1523080532989635,5,1,7,-5,-1,1,-11,8
1523080532989635,-8,8,4,-26,6,-4,4,-8
1523080532990636,-9,-22,-1,12,3,-3,-5,-21
1523080532990636,-7,-2,1,-7,2,4,3,15
1523080532995639,11,10,-16,104,2,-3,-13,-2
1523080532995639,-9,0,-4,21,4,1,16,-9
1523080533009649,-1,-14,-24,-17,1,2,0,4
1523080533009649,5,-24,4,-50,2,-5,-11,-33
1523080533023659,-21,-5,-13,-33,8,-2,-3,22
1523080533023659,-9,-55,28,0,-5,13,-1,-35
1523080533032666,37,76,-17,-33,-4,-12,20,25
1523080533032666,-5,30,15,-16,2,5,-13,14
1523080533034667,7,-38,-23,-84,-14,-7,-4,43
1523080533034667,-17,-11,13,37,-3,3,10,-21
1523080533046676,-10,-7,16,-46,-5,-3,-14,2
1523080533046676,-15,-14,10,27,-9,-3,4,-18
1523080533055682,13,31,24,36,-11,-7,-5,-22
1523080533055682,-16,14,-11,15,-10,-5,-2,18
1523080533069692,-6,-33,8,26,-5,2,-4,-17
1523080533069692,6,17,0,8,-5,-5,4,9
1523080533083701,2,-14,9,-17,1,-1,-4,-1
1523080533083701,-8,16,-11,-35,1,-5,1,7
1523080533092709,27,-4,-16,2,7,-5,-8,-11
1523080533092709,-13,-10,-13,-58,2,10,3,-6
1523080533093709,34,11,29,73,5,5,13,22
1523080533093709,-37,-3,-32,-22,6,-2,1,-13
1523080533106718,38,13,-8,-23,8,-1,-24,4
1523080533106718,-10,-8,2,31,8,-20,4,0
1523080533115725,15,34,-18,-42,-3,11,20,-38
1523080533115725,27,2,29,-13,4,-1,-12,6
1523080533129735,-68,-22,-22,23,-3,4,4,24
1523080533129735,35,26,-13,-13,-3,-4,-15,-17
1523080533136740,61,3,4,-2,-6,-9,-46,-62
1523080533136740,-82,-4,-2,3,4,1,27,78
1523080533152751,74,-9,0,3,-5,6,26,-21
1523080533152751,-19,-19,30,19,-1,7,1,6
1523080533153752,-18,2,-14,-7,0,4,1,-37
1523080533153752,28,49,-22,-10,-1,-5,-21,-14
1523080533166761,-31,-36,11,-2,-8,-8,-19,7
1523080533166761,-18,2,2,2,-9,-1,9,21
1523080533175767,16,-8,13,0,3,8,13,10
1523080533175767,21,-7,-1,8,4,-3,-9,-15
1523080533189777,-46,-11,-3,35,6,-20,-7,7
1523080533189777,24,9,16,11,-7,45,23,-1
1523080533196782,-41,2,3,-16,1,57,20,20
1523080533196782,29,-2,11,4,-20,-22,2,-7
1523080533211794,-7,7,-10,-20,12,-38,-24,-26
1523080533211794,-18,-17,-19,28,0,-36,-32,-7
1523080533226804,9,4,10,3,17,76,80,40
1523080533226804,15,7,-18,-74,12,3,4,2
1523080533227804,-1,-13,-14,-32,-7,-17,-7,-21
1523080533227804,-7,-6,-23,-31,2,-49,-29,-6
1523080533242815,-31,-10,-4,-5,10,-17,-26,11
1523080533242815,29,0,-13,-9,4,12,39,-1
1523080533249819,-9,2,1,28,8,11,-9,-3
1523080533249819,-2,-1,18,-15,-5,8,8,3
1523080533255824,-7,0,-8,2,-8,-18,-17,-3
1523080533255824,15,-7,-41,28,-8,-2,-11,-14
1523080533271836,-1,10,79,41,-12,10,7,-16
1523080533271836,-16,-4,-33,-4,-2,16,17,34
1523080533278841,1,5,7,-9,-13,-27,-14,-1
1523080533278841,10,-16,-3,27,-7,-14,-14,-5
1523080533294852,-8,-4,1,18,-5,10,10,1
1523080533294852,12,5,-4,2,0,8,0,-2
1523080533296853,13,-17,26,19,-8,-30,-4,24
1523080533296853,-80,41,-10,2,-3,0,-3,20
1523080533309863,53,12,-6,-27,8,18,1,3
1523080533309863,24,-10,-26,17,2,-2,2,2
1523080533323873,-20,-5,8,-1,-7,-26,-10,-3
1523080533323873,9,-8,21,5,-1,5,-3,-9
1523080533331878,-22,-11,-20,-22,-2,8,-4,12
1523080533331878,3,19,8,0,-2,-7,-1,-19
1523080533338882,0,-7,-1,26,0,-7,-17,10
1523080533338882,19,0,-8,6,8,9,55,2
1523080533353894,-9,3,-10,-4,2,2,-9,0
1523080533353894,10,-8,-8,26,-1,-2,4,5
1523080533362900,-37,1,-7,-42,-3,-12,-21,-14
1523080533362900,14,-7,19,-3,-2,-2,-27,-5
1523080533369904,0,-3,7,20,-10,0,23,-1
1523080533369904,-12,1,5,4,-2,-15,-17,-5
1523080533375909,6,3,-12,2,8,19,28,3
1523080533375909,12,2,17,12,-15,6,-18,-3
1523080533391922,-12,-3,7,2,-6,-16,-2,0
1523080533391922,3,7,18,-18,-5,-3,-7,-2
1523080533398925,4,-3,-29,-11,16,-29,-34,-7
1523080533398925,20,-9,16,18,-9,-11,5,-4
1523080533414936,-28,-3,-17,-20,1,66,55,10
1523080533414936,3,3,-1,-9,6,-8,-3,8
1523080533416938,3,2,8,13,-15,-26,-14,-18
1523080533416938,-8,-2,13,-52,12,-26,-79,-18
1523080533428947,13,-9,-23,13,-2,18,76,30
1523080533428947,3,13,1,-9,6,6,5,-5
1523080533437954,-7,0,-10,0,9,21,1,3
1523080533437954,7,1,29,-19,-15,-9,-14,-15
1523080533451964,-15,-5,-1,3,-4,-25,-59,-39
1523080533451964,0,-3,1,4,-3,18,-12,2
1523080533465974,-14,-33,-6,-19,6,-10,66,51
1523080533465974,43,22,-20,-4,11,24,3,46
1523080533474982,-39,10,-17,-13,-1,-9,-18,-64
1523080533474982,26,-7,6,-21,15,-14,-22,27
1523080533476981,2,3,-17,-31,-6,-15,-110,-2
1523080533476981,1,5,-40,-9,2,40,126,19
1523080533488990,-1,0,14,-1,7,18,-68,5
1523080533488990,-8,-16,-18,-12,-8,-7,11,-34
1523080533504001,13,18,22,11,-2,-13,-20,-48
1523080533504001,-33,-46,-12,-5,-1,-18,-43,2
1523080533520012,26,62,45,14,5,-10,4,16
1523080533520012,-8,5,2,14,-3,2,7,-14
1523080533522017,-19,-22,3,12,-3,16,38,57
1523080533522017,-2,2,11,24,1,-13,-4,-75
1523080533535026,8,-27,-19,-3,-16,-9,3,67
1523080533535026,4,80,12,-10,4,8,-3,-10
1523080533537028,5,-32,-20,10,-8,3,-3,14
1523080533537028,20,-17,22,-18,1,7,22,-19
1523080533549036,-89,-26,15,-12,5,-25,-53,-3
1523080533549036,13,-32,-14,-16,8,10,16,21
1523080533558039,21,41,-9,-17,5,21,74,50
1523080533558039,-17,-15,-18,-25,1,-7,-41,-16
1523080533572062,47,-4,-12,4,-4,-12,3,8
1523080533572062,-92,-28,-8,14,-14,-3,-25,-62
1523080533579053,35,24,36,-2,12,7,-6,-33
1523080533579053,3,5,-15,-2,0,14,5,41
1523080533595067,6,-11,-2,-5,30,-12,14,-19
1523080533595067,-4,-3,3,6,-54,-4,1,17
1523080533601085,-3,7,-9,-19,33,10,2,-38
1523080533601085,6,6,-17,-15,-43,-27,-11,11
1523080533609075,10,29,5,13,45,13,-3,5
1523080533609075,10,-68,-13,-21,-48,7,17,-6
1523080533618092,-6,51,-13,13,39,-3,-4,-2
1523080533618092,-7,-17,5,-35,31,10,-5,5
1523080533640107,4,-22,25,97,4,-10,1,-16
1523080533640107,12,-12,-36,-59,10,8,11,31
1523080533642101,-15,-27,-21,-27,-59,-8,-3,-34
1523080533642101,-14,15,32,53,22,-3,-2,8
1523080533655118,18,6,-12,20,24,1,4,-3
1523080533655118,1,3,14,72,-1,-36,-15,-1
1523080533657119,-7,-17,-15,-19,-8,30,-1,-20
1523080533657119,4,3,3,-32,-27,31,34,6
1523080533669127,0,-5,-3,-70,-41,-15,-7,1
1523080533669127,4,14,20,91,21,19,2,-2
1523080533678137,-11,1,0,-53,-11,-57,-18,-6
1523080533678137,0,1,18,111,31,3,-11,8
1523080533692135,-1,-1,-5,1,3,8,6,-10
1523080533692135,2,16,-10,-9,35,3,7,3
1523080533699155,7,-5,2,10,-32,-2,4,4
1523080533699155,-5,-2,-14,5,36,45,-6,-7
1523080533715170,3,-7,-21,-18,-10,-37,-2,-8
1523080533715170,-2,-4,0,-53,-29,-17,-4,2
1523080533717171,-2,-1,4,28,19,49,17,4
1523080533717171,-3,1,-8,1,4,-57,-22,-16
1523080533729160,3,4,-6,-54,-80,21,-1,-1
1523080533729160,2,2,7,-8,72,-19,-3,3
1523080533738168,-8,-10,-1,17,-6,-10,-4,-9
1523080533738168,-5,7,-4,-17,-8,-1,-21,-10
1523080533752178,4,-5,-3,-26,37,12,22,6
1523080533752178,1,5,-3,-28,-67,1,-7,2
1523080533760182,-6,-4,3,18,111,-92,-29,-14
1523080533760182,7,4,4,-1,-98,79,18,11
1523080533775192,7,2,1,-14,-55,-68,14,8
1523080533775192,-5,2,4,10,19,20,-5,-9
1523080533777196,0,2,12,19,32,14,7,4
1523080533777196,-3,-6,-10,-16,5,-64,-39,-3
1523080533789205,-3,0,-11,-15,90,36,27,-4
1523080533789205,0,4,17,49,-42,-18,-17,1
1523080533798209,-3,-4,-2,-10,-31,-34,-7,-3
1523080533798209,-4,1,3,-19,-20,70,4,-3
1523080533812229,3,-2,-8,-17,-23,-10,1,4
1523080533812229,2,-2,-7,1,28,9,5,-1
1523080533819250,-1,5,6,10,30,20,4,2
1523080533819250,-1,2,-8,20,0,-40,4,-5
1523080533835245,-5,-3,12,29,-60,0,-16,-7
1523080533835245,1,2,-5,-57,-1,-7,-1,0
1523080533836246,-3,-4,4,-7,-61,-72,-24,-6
1523080533836246,-6,-3,-15,-60,-9,38,-24,-5
1523080533849275,4,4,3,26,43,-37,35,5
1523080533849275,5,3,0,20,37,17,18,14
1523080533865256,1,-3,-14,11,-77,-46,-1,1
1523080533865256,-3,-3,3,39,3,-19,4,-4
1523080533872272,-8,-5,0,11,-57,-4,-46,-11
1523080533872272,1,1,6,13,40,6,18,3
1523080533879300,-1,2,1,-16,-28,-29,-6,-2
1523080533879300,2,2,-2,18,14,30,13,2
1523080533902297,-3,-4,-3,29,20,29,15,-6
1523080533902297,-1,-2,-4,-34,-1,-6,-2,-1
1523080533904288,3,0,0,-43,-21,41,-5,4
1523080533904288,-3,-1,3,39,51,-42,6,0
1523080533908287,0,2,1,-20,-30,18,-10,-3
1523080533908287,-4,-5,-5,6,12,-14,-15,-10
1523080533918301,-4,-5,4,-21,5,28,-24,-20
1523080533918301,7,2,-1,-8,-42,0,20,22
1523080533932314,3,3,-8,-61,28,3,43,11
1523080533932314,2,11,9,51,-27,44,-4,0
1523080533938332,-10,-10,2,87,69,-13,-14,-9
1523080533938332,-8,-4,-5,-34,7,-44,-20,-19
1523080533955331,5,-2,-4,0,0,4,-24,11
1523080533955331,2,4,-10,-56,-56,-30,-14,-4
1523080533957420,3,-4,1,-6,-41,42,30,3
1523080533957420,-3,1,6,24,-3,-9,-13,1
1523080533968340,0,-8,-4,-21,7,35,57,6
1523080533968340,5,-4,-4,-35,30,11,0,12
1523080533977353,-3,4,-6,-18,-17,-3,-5,-8
1523080533977353,-5,-5,-5,-7,9,-40,-34,-7
1523080534023369,-6,4,15,29,16,5,0,-9
1523080534023369,-2,-1,1,17,-22,-1,3,-17
1523080534024371,3,4,5,6,-2,11,-2,22
1523080534024371,3,1,5,5,-9,-11,10,4
1523080534037388,0,-8,-8,-29,-36,-1,-20,-3
1523080534037388,4,-1,0,-5,-8,-9,2,-12
1523080534043383,-15,0,5,9,9,21,10,-1
1523080534043383,0,0,3,61,74,19,22,1
1523080534051403,-3,3,-2,-23,-74,-36,-32,-7
1523080534051403,-4,-15,-8,16,18,-68,-19,0
1523080534060396,9,3,4,-7,0,112,58,13
1523080534060396,-1,1,-7,-40,-101,-13,29,3
1523080534075406,-3,0,13,20,127,-54,-37,-8
1523080534075406,-3,4,3,-27,-48,-19,-2,0
1523080534077424,0,-3,1,25,-78,-9,-12,-2
1523080534077424,-3,-4,-18,-98,-1,-20,-11,-5
1523080534088428,-6,-7,13,108,13,-20,-46,-14
1523080534088428,8,10,10,32,8,101,97,26
1523080534097423,-2,-4,-3,-26,67,-48,-9,-3
1523080534097423,0,2,-18,-80,-33,-14,0,-11
1523080534112443,-6,-18,0,64,3,-6,-18,-4
1523080534112443,-4,-3,17,-16,5,-3,-16,4
1523080534114450,-3,18,41,-9,-23,1,-1,-25
1523080534114450,-11,-4,-15,-43,-9,3,3,-6
1523080534128454,13,10,8,1,11,45,17,-30
1523080534128454,26,2,-41,-28,30,-5,2,88
1523080534135449,13,-12,-13,-12,-13,2,0,19
1523080534135449,-4,8,22,39,34,-15,-12,-12
1523080534135449,7,5,2,-38,-12,6,7,-15
1523080534135449,-41,0,6,21,-56,4,-6,-56
1523080534136449,5,10,-6,-12,-38,1,-1,-2
1523080534136449,4,-30,10,16,31,-14,0,9
1523080534156477,-5,5,-27,-28,-45,21,14,7
1523080534156477,-1,1,35,0,7,-33,-15,-10
1523080534157464,-4,-4,-7,24,-45,-2,-13,8
1523080534157464,-2,2,10,5,11,64,23,-3
1523080534181483,2,-1,-18,-78,-6,-57,2,19
1523080534181483,2,-5,-8,-31,25,34,26,2
1523080534182496,3,2,-12,-40,26,-41,-10,-1
1523080534182496,4,10,14,44,100,24,-2,-6
1523080534195492,4,1,3,-27,-71,-42,-7,16
1523080534195492,-2,4,-2,-1,-9,-14,-23,-11
1523080534201516,-23,-15,-7,49,66,25,16,-10
1523080534201516,5,0,-9,-15,-72,-5,-2,6
1523080534240533,-4,-1,3,-3,-21,31,1,3
1523080534240533,-18,-2,6,-19,0,-28,-11,-52
1523080534241525,5,-10,-10,-21,-67,16,9,-5
1523080534241525,49,17,13,-4,88,-53,-10,99
1523080534253543,-5,-3,-9,-6,-65,27,9,-11
1523080534253543,2,-3,-7,-3,-50,-1,-9,-2
1523080534262538,-10,-4,-3,-15,-28,-9,-4,-36
1523080534262538,-19,-4,-4,12,-56,-1,-4,-36
1523080534270554,3,1,3,-2,56,-3,-10,18
1523080534270554,2,-3,-12,7,22,1,15,-4
1523080534270554,-6,0,-4,-25,-21,-3,-2,-4
1523080534270554,-2,2,8,-6,28,8,2,-6
1523080534298565,-3,6,3,16,-7,-10,-11,-3
1523080534298565,-2,-11,-9,47,1,5,-10,-8
1523080534307572,-3,5,-6,-42,76,-17,-9,3
1523080534307572,-10,-2,-6,34,2,-31,-4,-32
1523080534315576,27,5,-1,-24,-16,14,6,48
1523080534315576,-3,1,1,10,-30,3,-4,-4
1523080534316578,-3,-2,2,28,-43,10,-1,-12
1523080534316578,-42,13,0,63,27,16,-13,-115
1523080534321580,36,-35,15,101,72,-25,4,78
1523080534321580,22,28,-10,-40,-19,-1,7,46
1523080534322581,4,-1,-1,22,-26,1,-1,7
1523080534322581,-15,-4,6,-31,-109,-1,-5,-37
1523080534336605,-28,-3,2,-23,4,10,-6,-66
1523080534336605,10,0,5,-26,46,-6,-2,12
1523080534337592,3,-4,-4,-47,17,-14,-6,0
1523080534337592,2,1,11,-17,-11,-18,-2,18
1523080534353611,-5,2,-16,-38,-16,76,38,2
1523080534353611,-3,-3,28,-4,12,-19,-18,-3
1523080534358609,-7,2,-6,31,31,-17,-21,-18
1523080534358609,16,2,8,1,-10,-4,2,31
1523080534373618,-7,-4,-18,-16,-5,-7,-1,3
1523080534373618,-5,0,1,-12,-31,-1,8,-14
1523080534381637,2,-12,-6,-13,-27,-13,-1,2
1523080534381637,5,-6,-5,17,47,-3,-14,21
1523080534396644,9,50,14,1,4,3,-6,-21
1523080534396644,-22,-37,-9,15,0,8,-1,-12
1523080534397635,0,5,4,-11,-6,-9,-1,9
1523080534397635,5,-10,-8,-2,-32,4,8,17
1523080534419664,-11,6,3,2,-8,-4,-7,-21
1523080534419664,6,-5,-3,13,24,7,0,-13
1523080534420665,12,4,3,12,31,11,6,29
1523080534420665,-3,-5,-10,-34,-70,14,15,53
1523080534433674,-1,-4,17,32,74,-12,-10,-21
1523080534433674,6,-3,-14,-19,-45,-13,-8,8
1523080534441668,-11,-6,6,-8,103,-34,-14,-28
1523080534441668,14,10,-11,27,-35,84,41,9
1523080534458681,-13,-1,25,10,26,-5,-4,1
1523080534458681,-3,-3,-9,-19,-59,-8,-8,-6
1523080534459692,2,2,-9,11,-62,-7,-10,-5
1523080534459692,-4,-2,2,34,74,-8,-14,-8
1523080534480701,0,2,-3,-9,-100,-30,-3,1
1523080534480701,-1,-1,-13,-13,-76,4,-2,-5
1523080534481695,9,-2,4,17,-21,5,12,9
1523080534481695,-6,35,-5,7,57,7,-13,-11
1523080534493719,-10,-23,-11,-9,-11,14,5,-12
1523080534493719,6,15,12,18,77,-5,-2,17
1523080534501732,0,-3,7,6,-42,15,3,8
1523080534501732,3,-17,-9,-38,-64,-19,12,5
1523080534525726,-13,3,0,19,81,-13,-25,-29
1523080534525726,3,-10,-18,6,-80,-1,15,7
1523080534526727,1,2,-5,-3,-71,-7,5,4
1523080534526727,-3,-5,1,-4,85,-15,-5,-8
1523080534532731,1,-1,-8,-12,-52,18,-3,3
1523080534532731,-9,-6,2,13,20,-31,-18,-8
1523080534538735,-2,1,-12,0,33,96,28,-4
1523080534538735,3,-7,0,-34,-27,-11,-5,5
1523080534553746,3,-1,14,-29,0,-8,-2,8
1523080534553746,-6,3,5,-6,-11,-11,-9,-10
1523080534561753,4,3,6,-29,0,-55,2,3
1523080534561753,-2,-7,-8,-13,-63,5,14,-2
1523080534576772,-8,-14,-19,28,121,-24,-8,-7
1523080534576772,0,-1,5,28,-17,25,3,0
1523080534577764,0,5,-5,-20,-61,-37,-14,-4
1523080534577764,8,6,1,-74,-104,-58,-11,6
1523080534592773,2,4,8,24,-51,91,43,7
1523080534592773,1,-7,-13,-28,-34,-65,-8,-3
1523080534598789,-3,11,-8,30,9,37,6,4
1523080534598789,-5,-6,3,-16,-13,-76,-37,-14
1523080534613799,-1,3,0,-25,-24,37,3,1
1523080534613799,2,5,7,-2,21,65,49,10
1523080534629811,5,-8,-6,-16,12,13,12,7
1523080534629811,-5,-2,2,7,80,-19,-22,-10
1523080534636805,-7,-7,-10,26,-12,-59,-23,-8
1523080534636805,-2,2,13,1,60,12,-9,-5
1523080534637816,4,0,6,23,-19,17,11,8
1523080534637816,-6,-10,-10,45,70,12,-2,-9
1523080534652817,-1,-6,-5,13,71,-11,-3,3
1523080534652817,5,16,-5,-25,11,-12,-8,-6
1523080534658819,-11,-35,9,64,67,18,-4,-17
1523080534658819,-3,14,3,23,-45,8,-1,0
1523080534673845,3,-5,-5,-14,-67,3,4,11
1523080534673845,1,4,-7,-14,17,-28,-5,1
1523080534681836,1,-1,5,-10,22,6,0,0
1523080534681836,0,-6,8,39,4,48,17,-6
1523080534696857,-7,-2,-2,-4,16,-52,-16,-10
1523080534696857,-4,-6,2,23,-61,21,0,-2
1523080534697849,-9,-3,-6,0,-39,-11,-2,-23
1523080534697849,19,-5,7,24,72,10,1,31
1523080534719874,2,26,10,-50,-77,9,9,12
1523080534719874,-8,-10,-9,6,-12,-18,-16,-27
1523080534719874,6,7,2,-3,26,-11,-9,21
1523080534719874,-9,3,29,-13,-55,-20,-7,-19
1523080534734884,9,-14,-12,-16,34,40,19,11
1523080534734884,-10,-1,4,30,68,-16,-12,-7
1523080534749897,-6,0,-16,-33,-63,-3,7,-13
1523080534749897,-1,-8,-28,-13,-71,-31,-6,-6
1523080534756900,-29,-5,10,17,-10,-21,-15,-66
1523080534756900,11,7,4,6,58,5,-3,47
1523080534757907,20,1,-7,-28,43,-15,-13,-10
1523080534757907,35,7,-2,-23,-15,17,16,57
1523080534772902,-9,-6,-1,-5,2,0,2,-4
1523080534772902,-15,-10,-11,45,14,-8,-13,-50
1523080534778918,-22,16,18,15,69,-6,-9,-21
1523080534778918,-8,-5,-26,-25,-50,8,4,12
1523080534794085,14,5,-15,-22,3,-13,7,-1
1523080534794085,-4,-4,29,25,101,39,7,1
1523080534800931,0,1,14,10,-18,-5,1,16
1523080534800931,-6,-10,6,6,19,8,-3,-24
1523080534816946,6,10,-14,-68,-119,-6,1,6
1523080534816946,-32,-21,-5,22,-37,-18,-24,-105
1523080534817947,25,17,-22,13,6,-14,-1,86
1523080534817947,31,12,-6,-65,-71,8,25,6
1523080534832945,10,5,3,32,101,13,-3,-43
1523080534832945,22,13,-1,-17,-52,4,12,13
1523080534838958,-34,-24,0,13,-13,-22,-35,-91
1523080534838958,-18,2,14,23,35,56,20,-10
1523080534854969,-7,-8,-1,-13,7,-91,-21,33
1523080534854969,-9,-9,10,10,-34,19,19,4
1523080534869980,12,5,-20,-3,50,20,14,22
1523080534869980,-1,3,21,1,57,-9,-9,7
1523080534876985,-12,-11,-4,41,68,-48,-25,-19
1523080534876985,7,-6,-23,-26,3,55,17,27
1523080534892997,11,3,-12,-21,-47,-26,-9,8
1523080534892997,-14,7,24,12,15,-63,-33,-28
1523080534894026,4,4,13,-39,1,46,40,7
1523080534894026,9,2,-21,-62,-62,-64,-13,19
1523080534899001,-33,-15,5,18,41,37,18,-43
1523080534899001,-19,-30,-57,45,29,-20,-33,-110
1523080534914011,90,61,-22,25,-117,-12,5,103
1523080534914011,-12,0,70,-13,79,9,1,-60
1523080534921016,-12,3,13,-16,-34,-27,4,-42
1523080534921016,-37,13,-2,33,15,18,5,-49
1523080534937019,-23,-26,22,-16,-15,26,-1,-20
1523080534937019,1,2,-41,-3,-30,5,10,40
1523080534938020,-13,4,31,11,73,-100,-36,-11
1523080534938020,26,-4,-3,11,-54,114,91,46
1523080534953031,-16,-6,-24,-58,-70,-71,-39,-22
1523080534953031,12,11,1,20,44,-27,-5,8
1523080534959034,-4,-10,-2,-8,-27,-43,-17,-8
1523080534959034,12,6,8,5,24,31,23,37
1523080534974060,-4,-14,0,7,110,66,14,1
1523080534974060,-12,0,5,-1,-91,-14,-8,-17
1523080534990055,12,3,-15,-9,-28,-23,-6,20
1523080534990055,12,-8,-30,-6,-59,-31,-11,12
1523080534997070,-14,2,49,67,105,121,48,-10
1523080534997070,-7,-1,10,-18,-72,-45,-17,0
1523080534998071,15,-2,-19,-20,72,23,1,5
1523080534998071,-16,-3,8,-15,-37,-32,-28,-13
1523080535028111,-18,-16,-19,13,9,-13,-6,-21
1523080535028111,14,4,-25,6,127,39,8,17
1523080535028111,18,6,37,-3,-128,7,21,22
1523080535028111,-17,-11,-6,4,27,-28,-20,-19
1523080535034101,-15,-7,-7,27,-12,-8,-17,-17
1523080535034101,11,5,4,1,-61,11,5,5
1523080535050100,13,9,-16,-7,-30,-40,12,8
1523080535050100,-3,0,15,16,127,77,-1,-2
1523080535057113,6,-1,10,8,-66,-42,-9,-1
1523080535057113,-11,-11,-23,-15,-89,50,12,4
1523080535058105,-6,-2,-5,-7,104,0,-3,-5
1523080535058105,6,1,0,-9,-122,-51,-3,8
1523080535073115,-8,-12,-17,12,-7,-49,-15,-8
1523080535073115,2,6,11,13,104,0,0,2
1523080535079129,-1,-1,6,-21,-106,77,12,-5
1523080535079129,-2,-3,4,9,127,-38,-13,-1
1523080535103143,1,-1,-11,-22,-116,-10,-3,-1
1523080535103143,-1,-2,-12,-1,-38,-31,-8,-3
1523080535104147,2,-1,-2,6,-28,7,-1,0
1523080535104147,-3,9,2,-13,-11,43,1,1
1523080535124152,0,-5,-3,12,-96,-9,14,2
1523080535124152,3,15,21,20,51,-21,-14,-10
1523080535133157,14,-10,-17,-11,-101,57,38,20
1523080535133157,-15,-10,-4,-14,-80,-91,-30,-13
1523080535134159,3,-1,3,2,-42,65,9,8
1523080535134159,11,4,0,-30,75,-20,11,4
1523080535139178,-3,2,-1,-6,-14,-8,-14,-15
1523080535139178,-1,0,3,-3,-35,-21,1,0
1523080535154189,7,2,-4,-36,-17,-17,-4,3
1523080535154189,-10,-27,-2,21,-44,22,3,4
1523080535161197,7,12,0,32,70,-19,1,14
1523080535161197,-27,9,0,-36,-87,-51,-17,-24
1523080535176201,16,5,-8,-20,101,8,-5,-8
1523080535176201,-9,7,4,-9,13,25,-3,-10
1523080535184207,-15,-28,-2,26,-52,19,13,10
1523080535184207,19,-30,-21,-39,-20,-18,5,18
1523080535199218,5,29,-24,38,30,-16,-6,3
1523080535199218,5,1,0,-31,-128,-10,-7,0
1523080535200204,-2,13,64,41,31,31,-5,-10
1523080535200204,-7,-10,12,11,78,27,10,4
1523080535214228,-10,-15,2,-4,53,-7,3,-5
1523080535214228,7,7,-42,-18,1,-34,-18,2
1523080535221220,-5,-8,-14,-3,45,20,20,3
1523080535221220,13,7,9,-4,-13,15,19,6
1523080535236280,-9,-4,6,45,23,-21,-17,-10
1523080535236280,4,1,4,14,-29,12,11,11
1523080535244271,-6,0,-19,-53,7,-8,-17,-10
1523080535244271,7,1,-14,-19,-33,7,-3,5
1523080535259303,-5,-8,-7,-1,-120,-9,-1,-1
1523080535259303,-6,-3,17,-3,29,-8,1,1
1523080535260283,1,-15,-4,36,-44,-22,-24,-12
1523080535260283,0,-4,-19,10,98,21,10,7
1523080535274293,6,7,13,13,-5,16,-23,-1
1523080535274293,-5,-6,-16,-30,-19,-25,37,-2
1523080535281306,8,16,-2,-24,17,-2,-10,2
1523080535281306,-2,-4,8,16,-47,2,-4,-2
1523080535304314,7,-7,36,-34,-19,-40,-20,-17
1523080535304314,-19,7,-4,38,80,92,25,1
1523080535305315,-1,-1,-9,-23,-38,-22,1,-2
1523080535305315,2,3,-8,2,28,-2,-11,-3
1523080535319345,-11,-15,-29,-5,-85,-22,7,-3
1523080535319345,15,2,7,-21,10,1,11,12
1523080535320326,-10,-3,0,32,32,-11,-5,-5
1523080535320326,-5,1,2,-14,6,-6,-13,-8
1523080535333334,-1,4,0,-20,-38,-58,-30,-1
1523080535333334,3,-5,4,21,12,75,45,2
1523080535341342,-2,1,-21,-26,-48,-35,-13,-3
1523080535341342,4,8,18,6,20,-18,-8,-7
1523080535356350,-4,-5,5,-12,-27,-4,1,3
1523080535356350,8,-6,-2,14,-37,-22,-29,-4
1523080535372372,-9,-6,-14,-12,72,33,20,-7
1523080535372372,-6,7,16,39,-31,0,-9,-8
1523080535379377,-4,-9,2,9,127,56,25,3
1523080535379377,22,9,-6,-36,-67,-60,-39,-36
1523080535380368,5,24,4,-19,50,60,32,4
1523080535380368,-62,-22,16,57,32,4,-15,-42
1523080535394379,26,-39,-53,-10,15,8,13,-17
1523080535394379,-4,58,22,-19,-66,-37,-5,95
1523080535401393,-7,-12,24,-3,96,-15,-12,-17
1523080535401393,10,12,-2,-39,-128,2,12,9
1523080535416406,-33,-16,-24,56,74,36,0,-91
1523080535416406,34,-62,-22,-8,23,-10,-16,-1
1523080535423438,16,34,20,-20,-72,-29,-1,51
1523080535423438,3,13,5,-20,12,15,9,0
1523080535439450,-5,-2,-6,-64,-1,-33,4,10
1523080535439450,-32,-14,-4,63,26,-8,-19,-58
1523080535440440,-12,-20,-20,8,5,-3,-10,-10
1523080535440440,15,-9,4,3,85,-6,-1,8
1523080535453449,-5,24,34,16,37,28,4,11
1523080535453449,-16,-6,-30,-63,-76,-45,-12,-11
1523080535461465,4,-23,3,38,92,1,-10,-22
1523080535461465,18,3,-30,-44,-114,-2,15,37
1523080535476475,-40,17,23,6,28,7,-4,-15
1523080535476475,2,-22,2,10,42,10,-5,-64
1523080535483480,51,23,0,-4,10,-15,7,84
1523080535483480,-1,7,13,19,29,0,-14,-17
1523080535499492,21,-8,-31,-31,-79,21,30,41
1523080535499492,-25,7,0,8,35,-5,-7,-22
1523080535500493,-26,-23,-2,18,-58,-17,-13,-65
1523080535500493,12,-11,-10,16,54,5,0,8
1523080535513502,6,38,42,46,-26,5,-1,22
1523080535513502,-6,3,10,46,57,4,-3,-13
1523080535521507,1,-3,-23,14,-73,-3,3,6
1523080535521507,-3,-3,-31,-15,-63,-10,-3,7
1523080535536518,-1,-24,-59,16,18,6,3,-3
1523080535536518,23,12,49,-15,-28,-23,-1,17
1523080535543523,-21,12,53,-19,23,13,0,2
1523080535543523,-2,-17,-14,-24,6,29,10,-8
1523080535559538,3,4,-12,-33,36,-20,-5,-9
1523080535559538,-8,1,-19,35,-29,-16,-22,11
1523080535560539,5,-9,-33,8,-11,0,19,4
1523080535560539,3,6,19,-2,25,-8,0,-10
1523080535581542,10,18,37,17,4,-9,-3,20
1523080535581542,-4,1,-4,15,115,13,3,13
1523080535582541,-11,-13,-7,-6,-92,-22,-17,-25
1523080535582541,2,15,-20,31,-66,13,3,4
1523080535596552,4,-16,11,16,113,13,6,13
1523080535596552,-9,-12,-13,-58,-81,-3,-4,-1
1523080535603566,-4,1,1,-49,-107,-23,-7,-15
1523080535603566,-4,-9,-2,30,75,-7,-4,-2
1523080535619577,3,3,6,3,-6,7,2,4
1523080535619577,10,28,8,-9,13,17,15,8
1523080535620578,-21,-67,-23,-26,72,13,0,-7
1523080535620578,-2,3,4,-13,-42,-11,-5,-2
1523080535633587,3,-6,-6,12,-25,-6,0,10
1523080535633587,-11,-15,-10,11,37,-2,-2,-6
1523080535641592,15,24,6,6,-13,9,0,-5
1523080535641592,-13,7,13,36,22,-13,-9,-23
1523080535656702,7,0,13,1,-26,0,-3,6
1523080535656702,5,0,-6,-9,-21,6,15,12
1523080535663608,-1,7,-8,-11,4,-2,-7,1
1523080535663608,-1,-6,4,-74,-20,-4,-2,-8
1523080535679623,-3,-2,-14,-126,-38,-2,-4,-5
1523080535679623,3,3,-2,-102,27,0,8,10
1523080535680624,-6,-5,33,22,68,-5,-10,-14
1523080535680624,14,13,4,-15,-38,26,14,20
1523080535693634,-6,-16,-19,21,-38,5,-9,-5
1523080535693634,-5,4,11,67,51,-45,-25,-10
1523080535701635,7,-6,-27,59,14,41,37,9
1523080535701635,1,-1,-22,41,-57,-39,-9,-1
1523080535716650,-5,6,10,22,-5,12,1,1
1523080535716650,-10,-20,-23,-19,0,5,2,0
1523080535723661,-12,-10,11,-14,62,-41,-26,-45
1523080535723661,18,69,44,-37,-5,18,7,-55
1523080535740670,48,12,-4,30,-16,-18,4,91
1523080535740670,-9,-5,12,20,39,6,-2,-37
1523080535741655,0,-1,-27,7,-38,22,4,0
1523080535741655,-21,-34,-20,13,-4,-5,-1,-14
1523080535753676,-18,-6,12,-9,-3,-11,-9,-40
1523080535753676,8,8,-20,11,-27,5,4,16
1523080535761681,5,17,34,-12,-11,12,5,20
1523080535761681,0,-17,-8,-34,31,-7,-4,5
1523080535776693,0,11,11,-57,24,5,5,-8
1523080535776693,-3,-13,-9,48,-119,2,2,11
1523080535783698,-7,0,-37,-4,21,-26,-15,-19
1523080535783698,2,0,-1,44,42,11,7,23
1523080535799708,2,17,46,1,-32,2,7,-4
1523080535799708,-6,-3,1,8,52,15,0,-7
1523080535800710,4,9,-8,-5,16,-10,-6,7
1523080535800710,2,-15,-30,-8,7,14,3,13
1523080535813719,-4,-6,-16,-18,-14,2,5,-11
1523080535813719,-4,-17,-2,78,-34,-16,-8,-9
1523080535821724,9,20,16,-4,-15,0,2,9
1523080535821724,15,-1,36,5,34,6,4,20
1523080535836735,-56,-9,-2,-9,-13,-8,-2,-25
1523080535836735,27,16,-2,-67,-2,0,-10,2
1523080535843726,-13,-28,-23,29,11,-13,-11,-19
1523080535843726,7,-12,-29,11,5,11,10,10
1523080535860741,15,3,15,8,3,0,0,-5
1523080535860741,-13,0,10,1,2,-9,4,11
1523080535861741,-19,12,22,-34,-28,-1,-18,-5
1523080535861741,75,-3,4,7,0,2,7,21
1523080535873749,-108,-12,-26,1,0,-2,-4,-29
1523080535873749,59,13,3,-19,6,-3,-3,-8
1523080535881754,17,11,0,-27,-7,16,23,18
1523080535881754,-7,-1,3,23,-4,-18,3,0
1523080535896798,15,-9,-22,24,16,9,-18,-4
1523080535896798,-26,-1,20,-6,-31,3,-12,-11
1523080535903780,9,6,5,-1,20,5,4,2
1523080535903780,-16,-6,-13,-12,0,1,7,-5
1523080535919791,21,-10,-15,-12,-7,-8,5,6
1523080535919791,-11,9,9,-27,-15,-2,9,16
1523080535920790,5,-1,3,47,1,3,-5,-6
1523080535920790,-29,-4,-2,-31,12,-11,-15,-13
1523080535933800,11,0,-8,10,9,-16,1,-17
1523080535933800,8,-5,7,34,-16,40,7,6
1523080535941824,-21,6,-11,-10,-12,-23,10,14
1523080535941824,-76,-10,-1,-39,-10,-13,-38,-34
1523080535956870,49,13,11,-5,13,1,-8,-1
1523080535956870,-12,-10,-19,-9,-7,-10,6,10
1523080535963812,22,-2,-10,-26,-2,3,6,3
1523080535963812,-8,5,7,-19,-12,2,4,3
1523080535979836,-8,-12,6,46,3,-13,-8,-2
1523080535979836,47,4,-9,56,3,-9,-7,17
1523080535980856,-100,-18,7,-14,15,28,23,-6
1523080535980856,91,23,27,-32,-6,-13,-21,-13
1523080536001848,2,10,-10,-51,16,6,3,-5
1523080536001848,-6,-1,-1,-2,-1,-8,1,-9
1523080536002846,24,-12,-16,21,-35,-8,-12,9
1523080536002846,-24,-7,-3,11,13,-9,9,21
1523080536017865,-7,5,-8,22,2,18,5,-1
1523080536017865,-6,6,-1,-45,25,8,5,-2
1523080536023871,-6,5,28,-2,-24,5,-5,-5
1523080536023871,-5,-8,-7,0,5,-10,-4,-8
1523080536038879,15,2,-12,-72,-2,4,8,8
1523080536038879,-33,-16,23,42,109,3,-6,-14
1523080536046883,22,-4,-12,-71,-89,-14,-5,1
1523080536046883,12,12,-3,-35,8,3,4,-1
1523080536053887,0,8,-10,7,-67,-22,-7,-2
1523080536053887,-14,-7,-8,-26,-8,0,-2,-5
1523080536060890,10,2,4,-23,85,21,8,-2
1523080536060890,-10,-9,-6,28,-64,-21,-9,-16
1523080536075901,4,-12,5,13,-2,3,3,22
1523080536075901,-12,-5,2,-40,-26,-19,1,-23
1523080536083907,5,11,6,44,22,-10,-11,-34
1523080536083907,5,3,-1,-2,9,15,8,50
1523080536098917,0,-9,-5,3,21,7,9,4
1523080536098917,8,-4,0,21,-9,6,0,37
1523080536106933,1,1,-16,-31,-3,-2,-7,-11
1523080536106933,-22,-11,-5,59,8,5,3,-35
1523080536113928,-2,8,14,72,-10,-9,-11,-15
1523080536113928,1,-2,-9,18,-12,7,6,1
1523080536120923,1,4,11,-32,-25,2,-4,-3
1523080536120923,-3,2,-2,-21,6,-9,-4,7
1523080536135944,6,-1,5,-32,71,3,-3,1
1523080536135944,-6,4,-19,-16,-19,3,3,-5
1523080536143950,6,0,-10,25,-6,-10,-2,10
1523080536143950,2,0,4,-47,13,8,6,3
1523080536158951,-4,-1,3,59,-14,-3,-7,-5
1523080536158951,0,-8,-4,22,30,15,6,-10
1523080536166970,3,4,-3,-14,1,-6,0,12
1523080536166970,-4,3,3,-1,-2,2,-2,0
1523080536181980,-2,-5,-11,-32,-10,0,2,-1
1523080536181980,-3,5,12,0,-15,-16,-4,0
1523080536182981,4,-5,-2,-33,1,-2,-8,-3
1523080536182981,-6,-10,-11,46,-80,11,3,-8
1523080536195987,-6,12,1,8,96,-6,-4,-3
1523080536195987,-33,-7,-2,-17,-116,-24,-6,-60
1523080536203996,17,-7,-4,14,1,2,-4,-11
1523080536203996,25,8,-8,-48,3,6,12,44
1523080536219003,-1,-10,-4,-2,-19,6,-4,-31
1523080536219003,3,7,-1,65,18,6,2,3
1523080536227008,-22,-4,-1,-12,20,-8,-8,-37
1523080536227008,-6,-31,-14,27,7,3,0,-14
1523080536242019,7,13,25,-65,-2,3,4,24
1523080536242019,3,-17,-2,-86,15,5,-2,-5
1523080536243020,0,-22,-23,16,-34,-6,5,16
1523080536243020,-2,27,-6,-6,32,1,-2,11
1523080536256030,-4,-4,9,-32,-27,1,1,1
1523080536256030,7,4,5,5,-5,-5,-2,4
1523080536264035,3,14,14,38,16,5,2,10
1523080536264035,-6,-14,2,7,17,-1,2,-1
1523080536280037,-11,-8,-5,-5,-37,-10,-7,-20
1523080536280037,-17,11,-6,-13,13,5,0,-17
1523080536294063,14,-12,5,19,11,1,-2,-31
1523080536294063,34,25,-7,-32,-68,7,18,77
1523080536302066,-12,-6,-1,36,85,-9,-8,-28
1523080536302066,-19,-5,-1,-3,-16,-6,-9,-46
1523080536303067,15,-1,7,17,-97,2,-2,-15
1523080536303067,-13,-20,24,38,75,3,-2,23
1523080536316061,44,30,-30,-16,-36,0,15,81
1523080536316061,10,6,-10,-21,-11,-3,1,79
1523080536324067,-23,-5,-12,-24,28,13,4,-37
1523080536324067,-18,2,9,4,-38,-11,-13,-71
1523080536339092,-11,-19,3,20,-2,3,-6,-28
1523080536339092,-6,-1,-1,-9,41,3,-5,-24
1523080536347097,4,20,6,-2,-18,-11,-3,19
1523080536347097,-6,-5,-1,-8,30,2,-1,-12
1523080536362108,-7,-7,-4,8,-16,-1,2,-13
1523080536362108,13,11,12,-9,-26,4,0,8
1523080536363109,2,-8,-9,-12,16,-56,-24,19
1523080536363109,-6,-2,-8,6,20,83,24,-7
1523080536376115,-2,-3,2,-1,76,-7,1,-4
1523080536376115,16,5,7,14,-61,-4,0,8
1523080536384124,-7,-1,-6,-8,-46,3,3,21
1523080536384124,-10,-1,0,-11,-3,-37,-21,-27
1523080536400123,2,1,1,0,12,21,1,-3
1523080536400123,8,6,7,-14,-45,1,12,12
1523080536414142,-5,3,-11,9,71,16,0,4
1523080536414142,-1,-9,9,84,-104,-44,-12,-12
1523080536422150,-1,-6,-3,17,-48,15,5,3
1523080536422150,-1,-1,-3,-37,-21,-5,-2,1
1523080536423151,-1,8,16,32,94,40,9,6
1523080536423151,9,6,-1,6,-67,-20,3,-2
1523080536436157,-6,-9,6,16,-42,-5,-4,-1
1523080536436157,0,3,0,-40,8,-1,-4,-3
1523080536444163,3,5,-3,-28,-11,15,7,10
1523080536444163,-4,-2,0,-15,46,1,0,-8
1523080536459173,0,-3,-1,11,-19,-9,-3,-3
1523080536459173,0,-3,-13,0,30,12,2,0
1523080536467193,5,0,4,6,-24,-6,1,6
1523080536467193,-7,0,-4,-4,11,-13,-8,-6
1523080536482190,-1,0,-2,-24,-83,-7,-3,-6
1523080536482190,2,-3,1,2,56,6,3,1
1523080536483191,0,-6,-1,26,9,-5,0,3
1523080536483191,1,-3,1,-9,10,1,-4,-3
1523080536496199,-8,32,2,11,-53,1,2,-1
1523080536496199,-2,-11,15,15,-7,21,0,0
1523080536504211,5,-15,-1,-8,-45,-29,1,4
1523080536504211,-32,3,-41,-45,-22,11,-1,-39
1523080536519223,31,11,28,50,10,-5,-5,2
1523080536519223,0,7,-8,-8,-7,-3,3,42
1523080536527212,-6,4,-1,-19,1,-1,-3,-6
1523080536527212,4,-4,-1,-17,28,3,0,2
1523080536550242,-17,-18,-17,-18,-17,-4,-2,-29
1523080536550242,-3,-2,-6,13,37,-20,-7,-16
1523080536551243,7,4,2,-8,-13,12,4,10
1523080536551243,-1,-5,1,-6,21,-2,0,-3
1523080536556246,-3,-5,-5,-10,6,-4,-1,6
1523080536556246,2,-1,2,0,-1,-1,-3,-3
1523080536572257,-10,1,5,15,-5,-11,-9,-6
1523080536572257,10,-3,-5,5,13,12,14,11
1523080536579262,-2,-4,5,-12,16,3,1,6
1523080536579262,2,-3,-12,-30,-19,-16,-7,-3
1523080536587265,-6,2,-4,7,-50,-2,-2,-11
1523080536587265,3,3,7,5,27,-4,-4,3
1523080536602275,0,-4,-8,-15,-3,3,0,7
1523080536602275,-4,-5,11,35,18,2,2,-10
1523080536603274,-3,3,1,-11,-16,-4,-2,-3
1523080536603274,7,3,9,-5,9,1,-1,8
1523080536616285,-3,-4,-6,-5,14,3,-1,0
1523080536616285,0,-2,-14,6,-11,-1,2,-6
1523080536624280,-3,-2,-6,6,-8,0,-4,1
1523080536624280,7,-3,-8,-9,2,-5,4,11
1523080536639324,-7,-4,-5,-3,3,-5,-7,-9
1523080536639324,-1,6,8,3,-8,3,4,-3
1523080536647309,5,-2,-1,-7,14,11,6,8
1523080536647309,-4,1,6,-6,-2,-9,-6,-6
1523080536662319,3,-1,-6,-14,-6,-3,-4,2
1523080536662319,0,-3,-4,10,1,2,0,-1
1523080536662319,-1,0,2,0,12,-2,1,-4
1523080536662319,-4,1,4,4,-5,4,-3,-3
1523080536678319,-1,-6,-1,-7,-12,-6,-2,4
1523080536678319,-3,-1,-2,3,12,-6,-8,-5
1523080536684323,-3,0,-5,1,18,-15,-1,1
1523080536684323,-1,2,6,4,7,50,21,1
1523080536699333,3,-4,-5,-8,-12,6,9,6
1523080536699333,-4,0,-2,-6,-3,-12,-7,-5
1523080536707351,-1,-2,-7,-7,-1,-38,-19,3
1523080536707351,0,4,8,26,11,62,31,2
1523080536722471,-2,-1,3,6,35,-7,-3,-3
1523080536722471,-15,-4,1,6,3,4,-6,-31
1523080536722471,-5,-2,-6,-5,1,-6,0,-38
1523080536722471,27,5,-1,-7,-9,-25,-8,61
1523080536736360,-2,-3,-3,-13,-14,10,4,-5
1523080536736360,-1,-4,-3,1,2,-1,1,-14
1523080536744365,6,8,3,7,11,2,0,37
1523080536744365,-13,-7,-13,-12,-22,-17,-13,-36
1523080536758379,1,-3,-2,4,3,-6,-4,3
1523080536758379,-2,1,-3,-24,-6,-4,2,-7
1523080536767383,-3,-1,2,-5,-6,14,8,-5
1523080536767383,-1,-3,-1,-26,-3,-14,-7,4
1523080536782406,-2,1,1,27,-15,-9,-2,7
1523080536782406,-2,-2,-4,8,4,-19,-17,-2
1523080536782406,4,1,-1,-14,-2,58,30,10
1523080536782406,1,1,1,-17,6,-28,-16,0
1523080536796413,-7,-3,-5,-1,3,-10,-3,-18
1523080536796413,0,-5,-4,42,8,18,0,7
1523080536836431,7,-3,-4,-16,-8,-10,-5,13
1523080536836431,-8,-3,-2,-8,-21,-18,-10,-17
1523080536838435,-2,4,8,-14,-16,-2,-2,-3
1523080536838435,7,0,-6,-9,-8,0,4,18
1523080536839435,2,-5,-5,9,13,6,6,6
1523080536839435,-7,-2,0,8,0,-1,-1,-13
1523080536851444,2,1,0,1,0,-6,-3,1
1523080536851444,1,2,2,-6,-2,-2,0,8
1523080536852443,-9,1,4,10,-11,-32,-16,-20
1523080536852443,5,-2,1,11,26,36,10,5
1523080536864471,4,3,-1,-16,-11,18,12,5
1523080536864471,1,-1,2,-4,3,-6,1,1
1523080536865453,-3,-1,0,-1,-9,-7,-5,-5
1523080536865453,-7,2,0,7,-18,-31,-14,-10
1523080536887478,-3,1,2,-7,-3,-4,-8,-2
1523080536887478,5,-2,-2,10,16,18,16,7
1523080536888469,0,-3,-5,4,-12,6,-7,0
1523080536888469,-1,-1,-3,1,17,-31,-9,1
1523080536902478,-2,-2,-2,-13,-15,-18,-4,-4
1523080536902478,-2,4,9,32,3,63,25,5
1523080536902478,1,-4,0,-26,-27,-86,-22,0
1523080536902478,1,1,6,25,62,39,25,3
1523080536917489,-3,0,-6,-21,26,-20,-1,-1
1523080536917489,-3,-1,0,-1,-11,-30,-24,-7
1523080536924494,2,-2,-2,24,-2,16,17,4
1523080536924494,-4,-2,-1,-1,-32,3,-8,-6
1523080536947512,-6,-5,-4,22,1,-105,-35,-8
1523080536947512,6,7,7,14,-53,73,39,11
1523080536948521,-3,-3,-3,6,89,62,28,-1
1523080536948521,-1,-1,-2,-14,-2,-54,-9,-3
1523080536970526,3,2,2,3,-13,14,6,6
1523080536970526,-3,-4,-8,-23,-20,-86,-35,-6
1523080536970526,-3,-3,-2,13,-19,27,-6,-4
1523080536970526,-2,1,2,9,-43,-16,5,-1
1523080536976551,-2,-2,-1,2,53,35,-5,-3
1523080536976551,4,0,-7,-24,-15,9,10,7
1523080537009554,-2,2,2,-3,-4,-9,-5,-3
1523080537009554,-2,-2,-1,21,2,-5,-9,-3
1523080537010557,1,1,2,-4,-24,8,1,-2
1523080537010557,0,-4,2,6,28,-4,-2,-1
1523080537011556,-2,1,1,5,-8,8,2,0
1523080537011556,-5,0,-4,-25,-11,-27,-20,-10
1523080537021627,8,-4,-4,29,13,37,18,11
1523080537021627,0,0,-1,-18,36,-1,-1,1
1523080537052595,-5,-7,-17,-6,-97,-41,-18,-8
1523080537052595,1,1,2,-14,5,14,5,0
1523080537060601,-2,5,6,2,-2,7,5,0
1523080537060601,-2,-2,8,0,41,-17,-6,0
1523080537061591,-1,3,4,8,22,0,-3,-4
1523080537061591,3,-1,-7,-15,-8,6,2,4
1523080537063604,1,-3,-4,-17,-20,21,5,1
1523080537063604,1,1,-5,0,-10,-18,-2,-1
1523080537074600,-2,0,1,4,5,-5,-4,-3
1523080537074600,-3,-2,-1,-2,-8,5,-1,-2
1523080537081605,-4,-4,1,0,2,-14,-8,-5
1523080537081605,-2,-2,-7,-26,-1,0,-3,-2
1523080537096636,6,-1,-2,-3,10,11,8,6
1523080537096636,-3,-1,2,-1,6,-6,-5,-4
1523080537112647,-5,-4,-3,16,11,7,3,-11
1523080537112647,-3,-5,-7,-15,-34,-12,-6,1
1523080537113648,1,6,-2,-7,9,4,2,2
1523080537113648,-2,0,5,10,-1,-2,-1,-1
1523080537118632,-4,3,9,7,2,2,-1,-23
1523080537118632,-11,-3,1,7,2,3,-1,-51
1523080537127638,14,3,0,-5,12,-9,4,84
1523080537127638,20,-4,-16,-8,-53,3,9,10
1523080537141662,10,4,3,8,33,3,4,14
1523080537141662,-6,-1,-6,-21,-26,-8,-3,-9
1523080537150665,-13,-2,4,19,8,-5,-11,-50
1523080537150665,-9,1,10,-4,-2,1,-5,-7
1523080537163674,-5,-4,-1,5,-9,-2,-1,9
1523080537163674,2,2,4,33,14,0,-3,-2
1523080537172670,3,7,17,12,1,2,6,-1
1523080537172670,-2,-3,-19,-73,2,5,-2,4
1523080537178684,1,-2,19,28,2,-5,1,-8
1523080537178684,0,-3,-25,-51,14,-5,-4,11
1523080537187680,-2,-11,-20,-64,-9,-3,-6,-10
1523080537187680,-5,-4,-20,-21,36,-27,-9,-9
1523080537201701,1,-5,-8,-6,6,48,17,6
1523080537201701,2,1,2,19,21,13,10,10
1523080537210708,-1,-1,2,19,-19,15,3,-7
1523080537210708,-4,2,10,30,-8,-11,-7,-10
1523080537223708,-5,0,-7,-5,-13,-23,-8,-2
1523080537223708,5,-2,3,-19,-11,-7,1,9
1523080537232712,-4,0,8,23,14,-2,-5,-17
1523080537232712,0,-4,2,16,4,16,6,4
1523080537247733,-1,-6,-21,-22,-6,-7,-8,3
1523080537247733,2,0,-2,-17,2,6,2,6
1523080537249735,-3,0,-1,-23,2,-12,-3,-9
1523080537249735,-1,-1,-4,-7,-8,-1,-2,-2
1523080537261743,-1,0,-9,-22,4,-14,-6,2
1523080537261743,-1,0,-2,8,4,-9,0,-5
1523080537270749,-6,1,9,31,-21,-6,-10,-11
1523080537270749,7,-6,-1,44,21,10,17,13
1523080537283759,1,4,3,-15,-5,1,6,0
1523080537283759,-2,2,8,16,9,-10,-7,1
1523080537292755,1,2,0,-37,0,-40,-9,-2
1523080537292755,-6,-6,0,35,-23,77,12,-5
1523080537298770,-4,-4,-6,-25,-6,-24,-9,-5
1523080537298770,1,-3,-3,7,-6,8,-1,5
1523080537307765,2,5,4,-44,33,-5,-2,0
1523080537307765,-3,6,9,-15,16,-17,-11,-9
1523080537321805,-2,-11,-8,15,-4,17,18,6
1523080537321805,-1,-1,-1,15,-5,-5,-4,1
1523080537336788,4,-2,-4,9,0,14,11,5
1523080537336788,-1,6,17,4,-12,-13,-5,-1
1523080537343791,-2,1,1,10,4,0,-4,-5
1523080537343791,-3,-1,-3,-15,-17,-25,-15,-7
1523080537352798,-4,-9,-14,10,1,14,1,-1
1523080537352798,1,0,-5,10,-1,2,12,3
1523080537358803,0,0,4,-12,-1,-5,-3,-1
1523080537358803,0,0,-3,-2,0,9,4,-8
1523080537375831,-6,-2,-2,7,1,-3,-8,5
1523080537375831,2,2,1,-6,6,-13,-8,6
1523080537389844,-2,0,-7,0,0,7,4,-2
1523080537389844,-1,3,13,12,-1,-1,-4,2
1523080537391827,-2,-1,-1,6,-12,4,0,-9
1523080537391827,-2,-6,-7,-12,6,-11,-3,-3
1523080537403848,2,2,-2,4,-10,-1,-3,1
1523080537403848,-2,0,-1,16,-1,3,4,-2
1523080537427871,-7,-1,2,-5,3,1,2,-7
1523080537427871,11,1,3,-2,2,-7,-4,-11
1523080537428853,-18,-9,-18,0,0,5,4,-33
1523080537428853,9,-3,8,-1,-3,-1,1,43
1523080537430873,22,12,10,-16,6,8,11,24
1523080537430873,-6,-2,-5,-7,3,-9,-7,-4
1523080537441862,2,10,13,-8,-4,-8,-6,10
1523080537441862,-13,-10,-15,26,2,7,-1,-32
1523080537449880,-8,-9,-15,-9,-10,-12,-3,-5
1523080537449880,-4,1,-3,-12,-45,-3,-10,-17
1523080537463887,6,4,19,17,81,21,14,5
1523080537463887,-2,1,0,-32,-27,-9,-2,8
1523080537472884,-2,0,0,9,-4,-7,-14,-9
1523080537472884,3,-5,-13,-15,11,10,13,13
1523080537478892,-2,1,1,-4,-26,-14,-10,2
1523080537478892,2,2,4,11,11,12,5,4
1523080537503905,-1,-1,-13,9,-8,-9,-6,-12
1523080537503905,-6,1,2,8,1,-3,0,0
1523080537503905,2,2,6,7,-13,-5,-12,9
1523080537503905,2,0,1,4,2,3,9,-4
1523080537509909,-4,-1,2,-2,-4,5,2,-4
1523080537509909,0,-2,-5,15,22,3,-1,11
1523080537523919,3,-3,-5,0,-9,15,19,-5
1523080537523919,2,6,-3,-13,-15,-13,11,5
1523080537532927,4,-1,-7,-39,3,3,-9,4
1523080537532927,-4,-2,15,24,0,-5,-1,3
1523080537538944,-1,-1,-1,8,-23,-22,-19,-8
1523080537538944,-5,-5,-1,-7,6,-15,-53,-15
1523080537547938,-4,-3,-9,-39,13,26,54,-21
1523080537547938,-19,-2,-1,28,0,2,-18,6
1523080537560945,21,-1,-8,-23,-22,11,38,-18
1523080537560945,-3,3,0,-13,16,-3,-11,69
1523080537569951,4,5,1,26,5,-2,-12,-8
1523080537569951,-5,-2,-3,-49,-5,-14,-12,-19
1523080537583962,-18,-1,-1,17,-3,-10,-16,-20
1523080537583962,-2,-5,4,16,-5,-1,4,-22
1523080537592968,-4,-7,-15,6,-2,0,-5,11
1523080537592968,2,5,6,-16,-2,5,14,0
1523080537598972,-1,1,25,-6,-3,-20,-14,12
1523080537598972,3,-2,-7,24,-23,2,-2,-14
1523080537607998,-1,-3,11,26,38,16,10,18
1523080537607998,6,-2,-21,-17,-31,14,6,-4
1523080537620989,3,-2,-11,-30,0,-5,1,17
1523080537620989,-1,-2,5,-9,1,-12,-6,-9
1523080537629994,-3,-2,12,5,-17,-24,-6,-6
1523080537629994,3,0,-4,-6,-23,-7,-5,0
1523080537644006,-2,-1,-6,21,45,38,12,9
1523080537644006,-3,1,-9,-24,-18,-7,6,-7
1523080537653011,1,-1,3,-21,4,4,-4,1
1523080537653011,3,2,8,12,6,-19,-5,0
1523080537659015,0,-1,-1,34,-23,0,-10,0
1523080537659015,-3,-5,-2,-29,29,4,5,-6
1523080537668041,-26,-7,1,7,-18,3,-3,9
1523080537668041,22,12,6,-4,-13,2,1,25
1523080537682045,0,-4,-14,-57,-8,-7,0,-41
1523080537682045,-7,-1,-8,22,5,9,8,60
1523080537690037,8,0,10,-1,-8,-6,-7,-8
1523080537690037,-6,-10,4,-17,15,-3,-2,-12
1523080537704058,-6,1,-6,-10,6,-10,-7,-2
1523080537704058,4,-3,2,32,-7,11,10,-24
1523080537713070,-1,-3,-7,11,8,0,-5,-9
1523080537713070,0,-2,-8,14,17,2,8,13
1523080537719068,4,4,10,5,-4,-2,-2,5
1523080537719068,-5,1,4,-7,-15,-27,-7,-16
1523080537728073,1,5,-4,1,-17,3,-7,-1
1523080537728073,2,-1,-2,0,37,28,18,-6
1523080537741084,-4,-3,-6,-6,-5,-17,-8,7
1523080537741084,0,-2,-5,-28,-4,-2,1,0
1523080537750080,0,5,10,37,-5,-11,-2,-6
1523080537750080,-9,-5,2,1,-9,-10,-8,-7
1523080537764122,-10,-2,-1,-1,-4,8,1,-9
1523080537764122,22,0,-2,3,7,-4,-2,28
1523080537773096,2,1,-12,-1,4,5,2,-5
1523080537773096,-3,-1,11,-5,-3,-3,-3,-5
1523080537779100,-5,-1,2,-4,-2,-3,-2,7
1523080537779100,-8,-6,-6,-11,-1,8,2,-24
1523080537788107,5,-2,-19,-36,-2,2,4,12
1523080537788107,2,-2,14,31,9,1,1,5
1523080537802120,-6,0,21,4,-17,-11,-12,-10
1523080537802120,-1,4,9,-1,3,7,3,-11
1523080537810123,3,-1,-5,0,1,4,2,5
1523080537810123,-7,-1,-16,-10,2,-24,-9,-8
1523080537824133,8,-1,-6,6,-12,24,7,13
1523080537824133,-2,-3,-3,0,6,-3,-1,-8
1523080537831138,0,-3,-5,1,-3,-6,-1,-1
1523080537831138,-4,1,-4,5,1,-2,-3,-5
1523080537839171,-2,-3,0,1,1,-6,-8,7
1523080537839171,-2,0,-7,-10,2,9,3,-7
1523080537848160,-3,-5,-1,6,0,2,1,-2
1523080537848160,1,2,5,11,-15,-4,-2,-2
1523080537861176,0,-3,-6,-10,10,-5,-1,7
1523080537861176,-6,0,5,7,-1,2,3,-12
1523080537870165,3,16,17,-6,-1,-14,-6,-7
1523080537870165,11,-9,-4,-2,-31,12,4,16
1523080537884185,-2,-9,-19,2,43,5,4,4
1523080537884185,2,-4,-21,-8,-10,-6,-6,-6
1523080537891190,-5,0,28,17,-6,1,4,1
1523080537891190,-6,4,11,0,0,-4,-3,-10
1523080537899196,-2,0,-11,-26,-18,-5,-6,0
1523080537899196,1,1,3,4,11,5,4,4
1523080537908194,-1,-3,-15,11,-5,-5,-3,-1
1523080537908194,-3,-1,0,2,4,-1,-1,-6
1523080537921215,3,-11,1,7,7,6,6,7
1523080537921215,-2,10,0,7,3,-1,-2,-7
1523080537930214,0,-3,-5,-18,-8,2,-1,2
1523080537930214,-3,-3,4,-10,-3,3,3,-1
1523080537944234,-6,2,1,9,10,-7,-4,-16
1523080537944234,-2,-6,-6,-2,1,-1,0,-23
1523080537959245,16,4,7,16,1,2,4,85
1523080537959245,-3,0,-10,-12,0,-9,-3,-9
1523080537960229,-3,3,-7,-10,-16,-1,2,7
1523080537960229,-4,-2,6,10,-3,8,3,-17
1523080537968251,-6,-3,-4,-10,28,-10,-9,-28
1523080537968251,0,-1,-5,13,3,-1,3,8
1523080537981260,3,5,5,4,-13,1,0,0
1523080537981260,-1,0,4,1,8,13,7,6
1523080537990251,-1,-3,-2,-6,-10,5,0,-10
1523080537990251,-1,-1,-8,-17,8,2,-7,2
1523080538004262,-2,0,2,-9,-14,-17,-15,-13
1523080538004262,1,-2,-1,-4,-2,-1,-6,7
1523080538011267,-4,-2,-5,-4,3,6,19,-5
1523080538011267,-1,0,-3,2,6,-7,-12,-8
1523080538027276,-10,-2,-3,-1,-2,7,5,4
1523080538027276,5,-4,0,0,0,-7,-16,2
1523080538029280,-2,-5,-8,-8,-1,-3,4,-18
1523080538029280,7,2,-1,-6,6,5,-9,8
1523080538041307,5,2,2,-7,-5,8,43,9
1523080538041307,-1,0,1,-12,-3,-12,-14,2
1523080538050293,-4,-3,-1,3,-1,0,-5,-9
1523080538050293,-5,-4,-3,-7,-6,-13,-15,-6
1523080538064320,-2,-3,-9,4,6,-15,-26,-9
1523080538064320,0,-2,0,10,3,21,16,10
1523080538079313,-5,1,3,-1,-5,9,24,-14
1523080538079313,-8,-3,-4,-10,3,-1,-4,9
1523080538087333,3,0,0,-6,-2,1,-7,6
1523080538087333,-3,0,3,-4,-20,-21,6,-5
1523080538089332,-3,-2,-6,8,17,-31,-26,-5
1523080538089332,0,1,-4,3,-20,59,19,-4
1523080538101343,2,0,4,10,1,-13,-9,-1
1523080538101343,6,1,0,4,-24,15,-12,-13
1523080538110336,-14,-2,0,-2,28,-8,10,10
1523080538110336,1,0,-3,1,-6,-21,37,-3
1523080538124347,0,-3,-5,-8,-14,-1,-22,-1
1523080538124347,0,2,5,-12,-7,1,0,0
1523080538131351,3,-1,0,10,3,2,-22,-8
1523080538131351,0,-2,-5,7,19,0,-1,-4
1523080538147362,-3,-1,-6,-2,6,9,8,2
1523080538147362,-3,-2,-8,-9,-2,-12,0,3
1523080538149363,4,3,10,-12,-19,3,-7,-5
1523080538149363,-4,-3,-3,24,32,-3,-5,0
1523080538161372,5,3,5,9,-14,1,7,1
1523080538161372,-3,1,-3,7,8,-4,-2,4
1523080538170395,6,-9,-13,-5,-15,6,4,3
1523080538170395,-6,-10,-4,-19,-12,-6,-3,-5
1523080538184399,-6,0,7,6,2,-1,-2,1
1523080538184399,0,-2,1,9,7,0,5,3
1523080538191404,0,-6,-21,-6,-4,7,0,0
1523080538191404,-3,-3,20,15,-4,-11,-7,-12
1523080538207415,-34,6,14,8,0,-2,-1,-12
1523080538207415,13,-36,-22,-8,5,-5,-3,4
1523080538209407,7,17,6,-13,-3,5,5,38
1523080538209407,1,3,-5,-5,-1,-7,-11,-9
1523080538221416,-2,-28,-6,-10,0,5,7,-30
1523080538221416,-3,20,21,-14,6,0,3,45
1523080538236471,-2,2,-12,-20,3,0,-7,-13
1523080538236471,7,-4,-24,-10,2,-3,0,5
1523080538244445,7,9,12,-3,7,-1,-1,0
1523080538244445,-9,4,1,11,1,-1,3,-32
1523080538251436,12,-24,30,63,-13,-1,-2,17
1523080538251436,-9,56,-20,-47,-4,0,1,2
1523080538267457,6,-12,-18,19,-4,-3,-1,-10
1523080538267457,-1,6,-27,-19,1,1,3,0
1523080538269458,-7,6,2,-23,3,1,-3,-11
1523080538269458,8,-10,48,-4,4,2,-1,-3
1523080538281467,4,-6,-22,-35,5,-2,-4,8
1523080538281467,3,4,-4,-12,5,-2,1,7
1523080538290463,-7,-8,-13,-14,5,-2,-1,-18
1523080538290463,-5,-12,3,34,-3,0,0,-3
1523080538304483,8,7,-5,15,-27,-7,-3,9
1523080538304483,-8,-7,1,-24,-2,-13,-2,-4
1523080538311479,-6,-1,-4,32,5,10,-5,-18
1523080538311479,4,-5,9,45,-21,3,5,6
1523080538327490,6,12,21,41,27,-1,4,12
1523080538327490,-5,2,14,49,-13,-1,-2,-11
1523080538329492,-1,1,2,30,-7,-20,-6,1
1523080538329492,3,3,-9,8,-3,49,15,6
1523080538341514,5,5,17,43,-31,-11,-4,7
1523080538341514,0,2,9,43,18,3,11,1
1523080538357686,0,0,3,-22,-12,-30,-8,-2
1523080538357686,1,-6,-27,-32,-21,-16,-5,2
1523080538364530,-1,4,3,-33,28,61,9,-3
1523080538364530,1,-6,-3,-32,-20,-7,0,8
1523080538371523,-6,-9,-26,-21,-11,-23,-17,-8
1523080538371523,1,1,11,-11,15,7,9,-3
1523080538387547,1,-1,-19,-20,-1,-56,-10,3
1523080538387547,0,3,6,7,29,35,-6,-3
1523080538389535,-1,-2,-19,-24,11,2,14,6
1523080538389535,-4,-4,-3,4,-7,-31,-16,-6
1523080538401553,4,-6,-9,-1,-26,1,5,0
1523080538401553,-15,-1,-6,-7,-15,-22,-12,3
1523080538410549,-5,0,18,3,10,7,-21,-15
1523080538410549,3,-2,6,-13,39,28,-2,3
1523080538424569,1,0,-3,-15,-10,-6,41,7
1523080538424569,-3,-8,-16,31,5,-15,-14,-6
1523080538431574,-4,-7,8,1,-54,19,3,-5
1523080538431574,8,7,1,20,62,-15,-18,-10
1523080538447585,-14,0,-19,-38,-22,10,4,15
1523080538447585,1,-5,-18,-73,4,2,-1,-11
1523080538449587,7,3,20,71,11,-20,-10,6
1523080538449587,-6,2,15,16,-4,24,48,20
1523080538461596,-16,-21,30,-6,-6,4,-37,-36
1523080538461596,36,43,75,30,13,40,39,5
1523080538470602,6,11,-15,-30,40,-51,-20,15
1523080538470602,-11,-3,-10,26,-9,6,26,36
1523080538484602,-15,-17,-40,-10,-22,-15,-39,-26
1523080538484602,-21,-17,-32,12,-13,-47,-11,-7
1523080538491627,12,15,40,-37,52,60,6,-4
1523080538491627,10,-6,-33,-3,-52,-36,14,12
1523080538515654,1,11,19,23,59,1,7,9
1523080538515654,-2,-8,-3,-40,-34,0,-14,-18
1523080538516635,-7,-14,-31,2,-9,-15,19,15
1523080538516635,-3,-33,-68,-50,-35,-19,-57,-36
1523080538521638,3,18,24,1,22,27,2,24
1523080538521638,16,1,24,-5,61,-44,-8,-13
1523080538530645,1,4,6,-12,-39,127,65,2
1523080538530645,-1,12,44,-6,-36,-8,3,-8
1523080538544655,-16,-15,-25,-6,-24,-86,-35,-5
1523080538544655,-18,-11,-23,14,-10,48,1,-3
1523080538551663,-3,-4,-37,-50,-31,-45,1,-4
1523080538551663,5,6,40,30,20,-11,-11,-4
1523080538567680,2,-6,-16,25,16,39,12,-6
1523080538567680,-4,1,-12,-14,-52,-35,-9,5
1523080538569673,-11,-4,-2,15,19,-14,-12,15
1523080538569673,-2,-8,-7,-23,-4,15,17,-4
1523080538581680,30,28,24,7,1,2,10,16
1523080538581680,5,-8,-22,-4,13,29,-19,-12
1523080538590694,-4,3,35,18,0,-20,-1,-9
1523080538590694,-14,-8,-23,-15,7,-14,-18,-12
1523080538604700,-7,-12,25,18,12,19,10,-11
1523080538604700,16,18,30,9,3,9,28,27
1523080538611702,7,-7,-51,6,50,-34,-7,2
1523080538611702,-2,0,4,-3,-5,2,-33,-20
1523080538634718,0,-2,34,46,15,79,-5,-16
1523080538634718,-8,-3,-19,-28,-72,-9,4,1
1523080538636709,-1,-3,15,-23,-18,-5,-9,-11
1523080538636709,-5,0,-8,5,64,-16,-16,11
1523080538641724,2,-4,-43,-1,11,20,78,6
1523080538641724,4,14,58,21,-24,19,-48,-6
1523080538650728,-15,-15,-25,33,14,-17,-18,-11
1523080538650728,-3,-12,-10,22,-12,-27,-10,-2
1523080538664746,-6,5,5,2,-10,-23,-49,-13
1523080538664746,6,11,32,51,30,-23,31,15
1523080538671734,-7,-2,-4,44,-42,-18,-10,-59
1523080538671734,15,5,19,10,4,4,-11,-2
1523080538687749,5,-5,-19,15,-18,-16,9,72
1523080538687749,-11,-10,-39,21,18,-1,-4,-1
1523080538689747,4,19,57,6,-33,10,-16,-11
1523080538689747,-16,-10,-10,-2,18,-3,2,-28
1523080538701770,11,10,9,39,-34,12,33,14
1523080538701770,2,2,4,48,-9,-8,-14,-4
1523080538710776,2,5,4,40,-11,9,9,11
1523080538710776,-3,13,26,111,-13,13,13,5
1523080538724900,6,0,1,-76,9,-35,-21,-3
1523080538724900,-2,-11,-30,-105,10,5,5,6
1523080538731787,-1,-12,-43,-106,37,15,2,1
1523080538731787,-4,-19,-59,-128,26,0,-3,9
1523080538747799,9,13,24,-125,22,-10,-14,-12
1523080538747799,-16,-17,-56,-89,39,-2,-3,-21
1523080538749801,-2,-6,-17,-10,21,5,4,-3
1523080538749801,-6,6,-4,-11,-7,3,6,4
1523080538761809,9,-7,-21,-7,-4,-12,-6,-17
1523080538761809,-14,0,-2,-13,6,3,8,-2
1523080538770815,3,-1,-28,-43,-14,-6,9,34
1523080538770815,3,-1,32,100,-24,5,8,26
1523080538792831,0,-7,18,10,4,0,8,-7
1523080538792831,-3,8,9,-27,-4,-24,1,5
1523080538794860,8,1,-13,-69,-6,25,-4,-41
1523080538794860,-33,-9,-11,-113,-3,-8,5,-41
1523080538807848,19,-11,-34,-19,5,4,0,95
1523080538807848,-15,-8,10,-38,-3,-6,18,10
1523080538809862,28,15,19,6,-1,7,3,16
1523080538809862,13,25,7,-52,13,16,10,-19
1523080538821841,-7,5,40,97,-19,-23,-32,-59
1523080538821841,-33,-9,0,108,-13,1,-1,-5
1523080538830848,4,-1,12,24,-10,-2,-3,15
1523080538830848,-6,6,27,38,-15,8,20,18
1523080538844857,18,-2,-38,-43,-8,7,30,-1
1523080538844857,26,13,17,50,-10,-9,-14,-6
1523080538851862,-35,-8,34,108,-7,-2,8,3
1523080538851862,5,-22,-11,79,-14,2,-16,-1
1523080538867876,-17,15,5,17,-11,-9,-10,-16
1523080538867876,32,22,42,61,5,-2,-17,-9
1523080538868888,-7,7,5,1,3,-3,3,27
1523080538868888,12,-6,-18,-29,-2,-19,49,24
1523080538881883,-12,-17,-25,-40,5,12,-13,-14
1523080538881883,-12,-13,-19,-57,2,20,-1,-3
1523080538889889,10,3,2,-28,4,-7,-20,-5
1523080538889889,0,-2,-19,-48,1,-7,-11,0
1523080538912916,-12,6,16,44,4,3,1,-11
1523080538912916,13,-2,-16,-23,5,-3,6,12
1523080538913917,2,-4,1,-15,-2,-3,6,-21
1523080538913917,4,13,5,22,-4,15,-1,12
1523080538927040,-2,1,-9,-43,7,-6,-7,-10
1523080538927040,2,-7,-11,8,9,8,8,4
1523080538933931,-6,-15,-29,-5,-1,-7,-2,-6
1523080538933931,-6,-2,15,-48,2,-3,-8,-4
1523080538940936,11,6,-19,-24,4,-5,-10,-5
1523080538940936,-14,-14,-16,-27,4,-2,-4,-7
1523080538949942,-2,7,8,-28,3,4,9,4
1523080538949942,7,-4,-10,6,3,5,-6,-9
1523080538964953,-12,-8,-4,1,-5,-4,2,9
1523080538964953,15,10,4,60,-5,-5,2,23
1523080538970957,4,8,24,7,-5,2,2,-9
1523080538970957,-1,-7,-3,14,-10,-2,-6,1
1523080538986972,-17,-7,-18,15,-6,-10,-8,-34
1523080538986972,-25,-10,45,-6,-4,7,4,-88
1523080538993977,65,51,12,27,-4,6,14,98
1523080538993977,-2,-3,-2,19,-2,-1,0,47
1523080539009988,0,-1,0,5,-4,-3,-4,-35
1523080539009988,-9,-17,-22,10,-2,2,0,9
1523080539011996,-26,-6,8,26,-13,-3,-8,-51
1523080539011996,7,15,26,-9,-6,-3,-8,-9
1523080539024999,8,4,-1,-10,2,1,6,23
1523080539024999,-2,2,-8,4,3,0,-3,3
1523080539031003,-9,-23,-14,-12,5,1,2,-10
1523080539031003,4,5,3,-15,0,-2,-6,1
1523080539047015,-5,-4,9,1,-2,-2,-2,-5
1523080539047015,9,3,0,-60,1,2,3,9
1523080539054020,-7,-11,-13,-2,1,-4,-4,0
1523080539054020,-3,-4,-8,-3,0,-4,-9,-13
1523080539070019,-3,1,0,10,-1,-18,-3,2
1523080539070019,4,-5,-6,5,-5,3,0,12
1523080539072020,-2,2,7,-10,14,3,5,1
1523080539072020,-1,6,3,-59,4,-12,-12,-17
1523080539085051,1,-2,10,65,-3,0,-2,5
1523080539085051,7,7,-7,10,-12,-36,3,15
1523080539091043,-15,-13,2,-1,-10,27,-19,-17
1523080539091043,4,0,0,13,6,-4,26,0
1523080539107054,-3,-4,-10,-37,15,-42,-14,4
1523080539107054,0,3,-5,-5,8,13,-5,1
1523080539114059,-1,-3,7,15,-10,-6,-2,-8
1523080539114059,-5,-6,-13,7,2,-3,-13,-8
1523080539130062,0,2,1,-14,-3,12,-3,0
1523080539130062,-1,-1,-3,1,-2,3,2,-1
1523080539132063,0,-4,4,-7,0,-13,-1,-1
1523080539132063,-1,-2,-7,15,0,87,13,2
1523080539144090,4,5,2,-23,-13,21,33,4
1523080539144090,-4,-5,-11,11,22,-19,-13,1
1523080539153094,0,-6,13,0,-44,-13,-10,-3
1523080539153094,-3,-3,1,27,-2,-27,-8,-5
1523080539167088,-7,4,12,4,4,-66,-35,-9
1523080539167088,1,-1,18,-12,0,111,7,0
1523080539174112,4,-4,-21,4,19,-16,40,18
1523080539174112,2,-3,-10,4,4,-27,43,3
1523080539191105,-5,-5,-1,-29,-25,25,-30,-8
1523080539191105,12,12,-4,-7,16,30,37,13
1523080539192104,-9,-2,0,-3,12,-83,-30,-21
1523080539192104,-2,4,0,-42,-41,27,-22,-6
1523080539204113,0,-1,-7,63,39,22,13,0
1523080539204113,-7,-11,5,35,-32,-67,-20,-4
1523080539213139,-9,-11,-34,-37,11,52,2,-6
1523080539213139,12,14,47,11,19,-40,-3,10
1523080539227142,-6,-5,-12,-11,-1,-19,-12,-7
1523080539227142,-6,-2,-5,-5,-13,17,-3,1
1523080539234147,4,2,1,2,-5,8,16,1
1523080539234147,-2,-5,-8,7,9,-10,-22,-6
1523080539250158,3,0,0,-10,-9,41,17,11
1523080539250158,-2,-3,-7,-7,0,-1,13,-1
1523080539252160,4,6,4,-6,14,-7,-7,0
1523080539252160,-5,-1,-9,-10,-6,-8,-10,-3
1523080539264186,2,-1,6,8,-9,12,5,-1
1523080539264186,-2,-3,-13,-39,2,-28,-4,0
1523080539273204,0,3,0,6,2,6,-7,-2
1523080539273204,1,-1,10,3,0,17,2,1
1523080539287181,0,1,-3,-12,-1,-13,7,3
1523080539287181,-3,-1,1,5,2,-9,-6,-1
1523080539294187,-6,-5,-4,9,-3,19,-12,-8
1523080539294187,-3,-7,-7,-4,-9,21,13,-1
1523080539310198,2,4,0,-19,4,0,11,3
1523080539310198,-4,-13,-30,17,5,-83,-27,-6
1523080539312199,5,29,72,-1,-20,77,0,-3
1523080539312199,0,-2,-5,4,-3,-38,-2,-1
1523080539324208,-6,-7,-2,19,20,-13,-6,-2
1523080539324208,5,4,1,-7,-15,15,6,3
1523080539333215,-5,-9,-27,9,9,-39,-4,1
1523080539333215,-1,-1,3,12,0,10,-3,-2
1523080539347224,-5,-1,-6,-12,-16,18,-6,-14
1523080539347224,6,9,7,1,-5,-15,-8,6
1523080539354229,6,-9,-16,-6,-10,4,10,-12
1523080539354229,-22,4,16,10,7,27,2,14
1523080539370244,22,0,3,0,-4,-7,8,46
1523080539370244,6,7,5,2,12,2,-7,-8
1523080539372252,-2,-3,-20,-9,8,-17,-1,2
1523080539372252,-9,-12,-15,-23,-39,4,0,-19
1523080539384288,-14,-6,-4,-1,2,-23,-10,-30
1523080539384288,3,3,10,10,23,5,7,11
1523080539393302,0,-4,0,-11,-8,55,3,7
1523080539393302,6,0,-11,-10,9,-17,3,-23
1523080539407304,-17,-6,-9,14,3,-22,-2,27
1523080539407304,-3,2,15,-5,0,10,-7,-11
1523080539414309,-9,-9,-19,-8,5,-39,-14,-4
1523080539414309,3,3,7,-10,3,15,-5,-1
1523080539430322,2,7,7,-13,-2,9,7,-9
1523080539430322,8,-1,-3,-16,-13,-4,6,5
1523080539432326,-7,0,-5,-3,-9,-18,0,3
1523080539432326,3,-8,-2,9,4,2,-12,2
1523080539444382,-4,2,-6,-11,-7,-4,-1,-3
1523080539444382,-4,4,-3,1,9,10,2,-10
1523080539453338,-6,-2,7,11,4,-5,-4,-20
1523080539453338,-1,-7,-13,0,-11,-17,-7,-52
1523080539467344,0,11,10,-13,7,15,12,78
1523080539467344,-7,-10,-5,-15,-1,2,-1,31
1523080539474371,11,0,-8,-4,5,5,8,18
1523080539474371,-1,3,17,-5,9,-12,-10,-10
1523080539490364,-2,-4,-3,17,-2,6,0,-45
1523080539490364,-8,0,4,9,-12,10,-3,-24
1523080539492371,0,1,4,-7,-7,-12,-6,-10
1523080539492371,-8,-7,-12,7,1,-14,-8,42
1523080539504360,-3,-2,2,18,-5,22,12,-14
1523080539504360,-10,-8,-11,7,16,-27,-9,6
1523080539513376,11,14,19,-2,-2,25,11,-3
1523080539513376,16,18,6,1,-5,-10,5,8
1523080539527386,3,-6,-11,6,-11,-15,-16,-19
1523080539527386,-6,-14,-31,-5,-11,0,-5,-2
1523080539534397,3,1,-21,16,4,-32,-16,-1
1523080539534397,-1,2,33,13,3,3,1,12
1523080539550406,11,20,35,-26,3,9,9,1
1523080539550406,0,-1,20,-17,8,-4,-3,-14
1523080539551407,-10,-6,-12,26,-7,5,1,-8
1523080539551407,-4,-9,-24,-6,8,11,0,-9
1523080539564403,-32,-17,-34,-5,-6,-1,4,-2
1523080539564403,30,11,26,18,-3,9,3,46
1523080539573409,21,21,9,-40,10,2,4,13
1523080539573409,-14,-2,-11,-34,5,-4,-10,-11
1523080539587432,-4,-11,6,3,21,1,-7,-16
1523080539587432,-6,-5,-16,-2,-2,13,12,-11
1523080539593433,-10,-7,-2,-28,4,-7,1,6
1523080539593433,3,-11,-16,-7,-38,-15,-4,1
1523080539610455,11,8,-3,-2,-4,3,-11,-9
1523080539610455,0,6,1,-17,3,11,1,-8
1523080539611449,1,-7,7,-2,19,-10,24,9
1523080539611449,-2,7,1,-3,26,11,-3,-4
1523080539623464,-25,-12,-17,-6,-31,-4,-24,-43
1523080539623464,-12,-7,-17,-33,13,-15,-58,-114
1523080539632464,34,-5,-1,2,-11,5,39,89
1523080539632464,6,27,-17,-42,-12,14,63,45
1523080539647475,17,13,-3,-30,17,8,-19,13
1523080539647475,-17,-1,2,1,-10,5,-21,-44
1523080539653486,-21,-4,9,16,-1,-22,-49,-65
1523080539653486,3,-16,-27,54,4,-8,42,13
1523080539670477,-3,-3,50,85,22,-102,-10,-4
1523080539670477,18,24,68,21,-18,97,23,22
1523080539671489,-6,-4,-1,4,-35,-87,-6,-1
1523080539671489,-3,-2,7,7,-24,-61,-61,-5
1523080539683501,0,-14,-20,10,2,-26,22,8
1523080539683501,-6,-14,-24,31,36,-34,7,41
1523080539692507,5,6,9,-6,3,14,36,11
1523080539692507,11,2,0,-40,5,6,-28,-18
1523080539707515,4,-7,-43,0,-18,93,-3,-2
1523080539707515,7,11,29,37,-4,-38,-9,17
1523080539713525,-8,-10,-21,33,-4,19,-7,-15
1523080539713525,-10,-4,-4,15,7,-33,-22,-6
1523080539730530,15,4,6,-49,5,7,10,5
1523080539730530,-6,-3,-12,-21,-6,12,28,20
1523080539731531,-16,-16,-17,-41,-4,-3,-14,-14
1523080539731531,66,-1,23,3,18,14,6,0
1523080539744540,-59,0,25,-34,-7,16,3,-3
1523080539744540,29,6,-19,-28,-6,-6,13,29
1523080539760542,-7,-4,-4,-14,4,-4,-23,-20
1523080539760542,1,-4,-12,25,8,19,0,-4
1523080539767547,1,-11,-18,30,-4,8,18,10
1523080539767547,-28,-14,6,-8,-17,-32,-9,-21
1523080539773551,-4,19,18,-9,-1,19,-7,50
1523080539773551,-21,-9,9,9,-17,9,-5,0
1523080539790573,18,12,5,-8,9,-16,-7,-8
1523080539790573,-17,-14,-30,-30,-5,-8,0,-3
1523080539792566,2,-10,-47,5,-3,16,2,-7
1523080539792566,-17,0,46,34,0,-8,1,-5
1523080539803582,12,4,10,-30,7,9,9,22
1523080539803582,13,-6,-23,-21,-4,3,4,-8
1523080539812578,-4,-1,13,104,0,7,0,-1
1523080539812578,16,-9,-14,3,2,-6,-9,-25
1523080539827599,-68,0,14,-16,-3,-7,-5,-19
1523080539827599,70,18,-29,-56,3,4,13,5
1523080539833606,-33,-9,2,-47,7,0,-6,-13
1523080539833606,1,-15,-39,-84,0,-2,-11,-17
1523080539849615,11,-12,30,29,3,1,3,7
1523080539849615,-16,22,21,7,-5,5,3,28
1523080539856626,-2,-9,-19,-29,3,-8,-8,-18
1523080539856626,-7,6,9,7,4,10,5,5
1523080539863625,17,-5,-28,-28,-6,0,9,-11
1523080539863625,-49,-7,2,9,1,-7,-11,34
1523080539872623,48,2,24,7,0,1,-3,-8
1523080539872623,-28,6,-2,-24,2,5,4,-1
1523080539886642,19,6,-9,6,1,-1,3,0
1523080539886642,-2,-12,-18,20,-8,-4,-4,-20
1523080539893647,-11,-5,9,5,-7,0,-3,-6
1523080539893647,-9,5,18,18,-2,8,10,8
1523080539909658,16,0,-9,10,-9,-22,-7,2
1523080539909658,-6,-6,6,34,8,-26,-11,-15
1523080539916663,-4,10,11,4,-26,77,32,9
1523080539916663,5,2,-9,7,11,7,0,2
1523080539932674,12,0,0,27,-14,15,4,3
1523080539932674,-15,7,15,20,4,19,19,3
1523080539934675,6,0,1,-14,7,-35,-13,-7
1523080539934675,-6,-2,-5,16,2,-30,-7,-2
1523080539946684,12,7,15,35,9,69,12,2
1523080539946684,2,-10,-16,-6,-7,-9,1,0
1523080539953689,21,0,-8,-21,-11,-4,-3,-2
1523080539953689,-20,6,14,16,2,-14,4,6
1523080539969706,-1,-2,-7,-18,6,-24,-19,-5
1523080539969706,-8,-5,-3,-8,-1,21,6,-14
1523080539976706,7,3,4,23,13,-2,3,8
1523080539976706,0,-1,-4,11,-10,-14,-8,4
1523080539992720,-2,2,4,-17,-1,8,0,-3
1523080539992720,22,5,3,0,-1,-6,-4,-7
1523080539994722,-15,1,6,6,4,-38,-29,-2
1523080539994722,4,-1,-3,-7,-5,20,23,3
1523080540006717,-2,-8,-18,-18,-1,-34,-2,4
1523080540006717,7,-1,5,3,-36,33,10,5
1523080540021747,-22,2,-2,-11,13,26,3,-7
1523080540021747,6,-2,-13,-17,3,-14,-14,0
1523080540029747,7,-1,-5,-7,-8,-27,-24,-9
1523080540029747,-8,-1,3,3,-1,-39,-4,-8
1523080540037743,-2,-4,-6,-5,4,-23,-14,6
1523080540037743,2,0,-3,5,11,37,34,-3
1523080540052763,-2,-4,-9,-1,5,16,23,13
1523080540052763,1,8,22,-13,-3,-8,-11,-6
1523080540054769,-8,-5,-6,-12,2,-13,-11,-9
1523080540054769,4,3,-2,-5,0,25,-9,-1
1523080540066769,0,-2,-3,-11,-4,-4,-7,-7
1523080540066769,-8,-5,-15,3,5,-5,-4,0
1523080540075776,0,1,8,3,4,-10,1,-2
1523080540075776,0,-1,-2,2,-10,-6,-9,0
1523080540089776,1,0,-3,-7,4,-16,1,3
1523080540089776,-4,-7,-9,-8,-22,-5,6,1
1523080540096794,0,-3,-1,-4,8,-35,3,-1
1523080540096794,-2,-2,-4,0,10,23,-25,-2
1523080540112809,-4,0,-3,6,-41,-8,21,-8
1523080540112809,5,6,12,-2,21,4,-41,9
1523080540114793,0,-1,-1,9,-10,19,61,1
1523080540114793,-2,-3,-5,-3,1,-12,2,3
1523080540126816,5,2,0,-10,4,-15,-34,-3
1523080540126816,-2,-3,2,5,9,-9,0,-7
1523080540135822,-4,-1,-5,1,-10,4,-21,-2
1523080540135822,-7,-9,-23,-5,-4,1,-2,-3
1523080540157838,5,12,26,-14,10,1,3,1
1523080540157838,1,-3,-2,2,6,2,5,0
1523080540159845,1,2,0,-9,8,15,-4,-6
1523080540159845,-3,-7,-3,-12,-7,-11,9,-3
1523080540179850,-4,-6,-17,5,-3,-6,-7,1
1523080540179850,-4,-2,5,12,0,11,13,-3
1523080540181850,7,8,7,-5,4,6,2,12
1523080540181850,1,1,0,-1,1,-11,-3,-4
1523080540186896,-9,-4,-2,23,-12,1,-3,-15
1523080540186896,8,5,3,5,4,3,6,18
1523080540195884,-53,-6,-5,9,-8,-2,-15,-105
1523080540195884,64,7,3,19,-4,-9,1,39
1523080540209906,6,4,8,-1,4,9,7,2
1523080540209906,-14,-6,-4,-9,2,2,10,15
1523080540216903,-2,-5,-5,9,4,2,-2,3
1523080540216903,-32,-5,7,13,-3,4,3,-54
1523080540232916,-1,-6,-17,0,-5,-14,-14,-17
1523080540232916,6,-1,0,9,-6,7,0,12
1523080540233917,-7,-7,1,2,-9,2,-3,0
1523080540233917,-9,-3,-7,-8,-19,-35,-28,-8
1523080540245925,15,5,4,-1,13,72,34,26
1523080540245925,0,4,-1,9,7,-18,-7,-15
1523080540254937,6,2,-2,1,0,-4,-7,6
1523080540254937,-4,2,2,4,-4,-3,7,7
1523080540270106,-2,1,3,-18,-2,-34,-25,-65
1523080540270106,-34,-22,-27,-36,-33,2,-5,-13
1523080540284953,38,2,-6,6,-4,11,25,108
1523080540284953,8,18,32,2,26,4,6,3
1523080540291959,-8,-5,-7,-1,2,-52,-20,10
1523080540291959,-3,0,3,-5,11,84,4,-36
1523080540292949,2,-4,-13,-55,5,4,17,-10
1523080540292949,-13,-9,-19,-50,12,9,11,2
1523080540314975,-10,-4,-8,-28,20,-8,-16,-21
1523080540314975,23,6,-3,-17,15,-27,14,18
1523080540314975,-12,-7,-10,-2,29,-54,-24,-10
1523080540314975,-1,-1,-12,1,-46,58,-3,-22
1523080540329986,7,5,7,-5,-1,-12,6,15
1523080540329986,-2,-3,-4,8,-6,-35,-6,-1
1523080540335989,-7,1,5,15,-17,9,0,-6
1523080540335989,3,-3,-1,-7,16,-37,-9,-9
1523080540352004,-10,-7,5,-8,0,7,-2,-15
1523080540352004,2,-1,0,9,-16,1,-2,-6
1523080540353001,4,8,12,27,5,-10,-3,0
1523080540353001,-9,-3,10,7,7,-5,-2,-14
1523080540375010,3,0,-2,22,-13,26,12,20
1523080540375010,6,4,6,6,4,-1,10,-2
1523080540375010,0,-3,-5,-21,-8,11,-4,-16
1523080540375010,-3,-4,-9,9,-4,-6,-4,7
1523080540390037,5,0,-2,-2,9,13,9,12
1523080540390037,-5,-1,-2,-22,16,-15,-8,-7
1523080540396035,4,1,0,-13,-13,4,-5,-14
1523080540396035,-2,-2,0,8,-13,2,3,9
1523080540412047,-1,1,0,-13,-2,-8,2,11
1523080540412047,0,-4,-1,-9,13,-6,-4,-13
1523080540413043,4,4,9,-6,-2,21,4,5
1523080540413043,-4,-7,-14,-12,-8,-11,-2,0
1523080540435049,-7,2,-3,60,3,1,2,-5
1523080540435049,7,-1,-3,75,20,-5,-2,1
1523080540435049,0,-6,-1,21,-17,3,1,-1
1523080540435049,-3,-5,0,9,-8,-7,1,5
1523080540459066,-1,1,-4,-30,7,-2,-4,-4
1523080540459066,-5,1,1,-39,-6,1,-2,-7
1523080540459066,1,0,3,-30,9,-3,0,2
1523080540459066,1,4,2,5,-16,-3,0,-2
1523080540472077,-3,-7,-8,-5,-15,-1,2,3
1523080540472077,1,1,7,9,7,-1,1,4
1523080540473078,1,0,0,9,-1,-4,-10,-7
1523080540473078,1,3,5,16,45,8,6,3
1523080540494112,4,2,4,-11,-77,0,5,9
1523080540494112,0,2,5,16,12,-1,4,5
1523080540495098,-2,-1,0,8,-30,-1,-2,-5
1523080540495098,-2,-1,-2,6,6,-8,-5,-1
1523080540510102,0,0,-1,-2,42,2,-6,-1
1523080540510102,-1,-1,-8,-45,-12,2,0,-4
1523080540516121,0,0,4,6,39,15,-4,1
1523080540516121,1,1,3,-4,3,-9,13,0
1523080540532306,-1,-8,-8,-24,-39,-6,-6,3
1523080540532306,-3,2,0,8,5,-7,-8,-6
1523080540533133,-3,-3,-13,5,1,-46,-21,-5
1523080540533133,3,7,15,40,17,92,33,9
1523080540554148,5,7,17,51,88,-5,19,10
1523080540554148,0,-1,0,3,-100,-29,-4,3
1523080540555134,-2,-3,3,9,17,-7,-2,-5
1523080540555134,-3,0,-2,-10,-48,-32,-18,-3
1523080540578165,-1,3,3,-30,0,14,4,1
1523080540578165,3,20,-16,-7,-58,-23,-15,-5
1523080540579153,-1,-8,5,-7,-2,4,2,0
1523080540579153,-1,-3,-6,-10,-21,-14,-9,-3
1523080540592171,2,1,-1,-32,33,14,5,0
1523080540592171,0,1,3,-21,22,2,-3,2
1523080540593172,-2,3,-1,2,-38,15,13,0
1523080540593172,-3,-4,-2,-6,35,7,-5,-4
1523080540614177,1,-9,-16,-2,-66,-45,-15,-4
1523080540614177,-4,-7,5,14,12,29,13,1
1523080540615177,0,3,2,5,55,13,11,3
1523080540615177,-1,-5,-6,-21,-3,-24,-15,1
1523080540630188,-3,3,0,3,-46,-2,-4,-3
1523080540630188,-3,-5,1,11,76,12,-6,-7
1523080540636209,1,-2,-4,13,-59,20,6,-2
1523080540636209,-1,-1,-3,-17,-16,-29,-6,1
1523080540652217,1,1,-1,-8,-16,10,5,1
1523080540652217,-3,-5,-5,-58,-38,-33,-18,-7
1523080540653218,2,7,5,-15,-18,-1,6,5
1523080540653218,-2,-5,-3,58,123,33,4,-5
1523080540674368,-4,-4,-9,-13,-28,-11,-6,0
1523080540674368,1,-1,7,5,-70,15,12,4
1523080540675220,-4,-7,-18,-23,21,-48,-25,-7
1523080540675220,2,2,-2,-23,-96,-4,-3,-2
1523080540690234,-5,-2,3,8,36,-13,-3,-4
1523080540690234,-1,-1,3,18,-4,50,8,1
1523080540696249,1,-3,4,26,83,15,4,1
1523080540696249,9,14,16,42,72,7,13,5
1523080540712257,-5,-10,-17,-10,-67,-8,-5,-2
1523080540712257,-7,-9,-6,42,110,-31,-11,-7
1523080540713258,1,4,-1,-28,-65,-15,-20,-6
1523080540713258,5,7,19,25,21,43,25,6
1523080540736263,4,-1,10,76,127,9,-3,15
1523080540736263,-5,-10,-19,-50,-86,-26,21,-4
1523080540737284,2,1,5,13,-38,27,26,4
1523080540737284,-1,6,7,-3,-65,-38,-49,-11
1523080540750273,-6,-2,2,15,-19,-9,-42,-22
1523080540750273,8,4,5,12,22,21,2,21
1523080540756277,5,6,7,4,53,6,50,3
1523080540756277,-1,0,-4,-10,-35,7,28,9
1523080540771308,-4,0,1,-14,-20,15,-8,-2
1523080540771308,-1,-5,-12,-17,4,-27,-20,-12
1523080540787313,-4,2,4,21,-12,-5,-28,-7
1523080540787313,-6,-6,-8,-28,-9,-38,-17,-5
1523080540795305,6,2,-3,-9,11,53,50,12
1523080540795305,-3,0,13,65,-36,22,-13,-4
1523080540801310,-2,-5,-22,-57,-59,-37,-1,5
1523080540801310,-5,-1,-3,9,32,-23,-12,-7
1523080540810316,3,6,6,-27,-59,-20,-8,-5
1523080540810316,-1,6,-2,-37,-3,-14,-34,-18
1523080540816321,0,-11,-4,29,63,41,-8,23
1523080540816321,2,-4,-4,-21,-44,48,87,7
1523080540831334,1,1,-1,8,95,-24,-40,-1
1523080540831334,1,1,3,8,21,9,12,3
1523080540839336,-3,4,-2,-8,-19,-31,-43,-18
1523080540839336,-4,-6,-10,-12,39,-4,-21,-2
1523080540854348,-1,0,9,9,-25,20,9,4
1523080540854348,2,-4,-13,-6,24,-19,32,-1
1523080540855348,-1,-2,4,22,83,11,-21,-3
1523080540855348,1,-1,-4,-30,-35,-7,3,3
1523080540870360,0,2,-1,14,-21,-5,2,-6
1523080540870360,-8,-13,-7,-5,-27,-7,-19,-5
1523080540876373,4,2,-13,-23,-43,5,27,4
1523080540876373,-3,-2,-5,-22,31,-2,-13,-4
1523080540891373,-5,-2,18,30,58,-16,-6,-7
1523080540891373,2,0,-14,-17,4,12,9,6
1523080540899379,3,3,2,-4,-33,18,22,2
1523080540899379,-3,-4,-1,14,46,-24,-34,-6
1523080540914458,-2,-3,-12,-28,-84,-5,1,-2
1523080540914458,-2,1,21,18,23,13,12,4
1523080540915392,-3,-11,2,-21,-17,-16,-11,-5
1523080540915392,4,17,5,9,-45,1,-13,-4
1523080540930402,0,5,-23,-25,33,3,18,5
1523080540930402,-1,-6,-5,9,-17,-9,-3,-3
1523080540944421,-6,-2,7,8,2,1,-9,-5
1523080540944421,3,-5,6,6,36,18,10,7
1523080540959421,-3,-6,-4,-16,-64,-7,3,-3
1523080540959421,0,4,8,30,50,-11,-11,-1
1523080540960423,-5,-5,-14,-5,5,-8,-10,-10
1523080540960423,-2,-3,-3,-29,-81,-18,-3,-2
1523080540999464,-1,-2,-7,19,17,11,-2,-2
1523080540999464,3,-3,6,15,7,18,3,7
1523080540999464,1,4,5,-8,12,-11,28,-1
1523080540999464,-7,-21,2,-19,-96,-20,-28,-7
1523080541001453,-1,13,30,21,66,1,0,-3
1523080541001453,-3,4,14,-41,-71,-19,-13,-4
1523080541012475,8,4,-31,7,40,21,14,9
1523080541012475,0,3,-3,43,39,22,10,3
1523080541014461,-1,-5,-1,-16,59,-16,-8,-2
1523080541014461,-3,-3,10,4,87,11,3,-2
1523080541026469,2,0,-9,-5,-20,-4,-8,-2
1523080541026469,1,4,-4,3,23,0,4,2
1523080541036480,2,-3,-7,-14,-44,16,7,2
1523080541036480,2,3,-10,-28,-39,-18,6,3
1523080541036480,-3,-3,23,76,86,16,-6,-3
1523080541036480,-7,-9,-19,-53,-77,-13,-13,-6
1523080541050496,-7,-11,-9,-16,9,1,-2,-6
1523080541050496,2,8,6,3,17,-5,3,0
1523080541056505,3,6,16,-4,-6,10,1,3
1523080541056505,3,0,-12,12,1,1,4,3
1523080541079517,5,-4,-12,-18,-12,3,6,4
1523080541079517,-2,-7,-8,3,-35,11,0,-1
1523080541080508,-8,2,8,4,-56,-12,-12,-8
1523080541080508,0,6,11,28,107,15,1,1
1523080541094530,5,20,-4,-33,-117,-2,5,2
1523080541094530,-2,-24,8,10,-56,-24,-4,1
1523080541095521,-3,-1,25,11,2,3,-1,0
1523080541095521,2,22,8,-14,22,-15,-6,-2
1523080541118535,0,-8,1,44,65,35,2,1
1523080541118535,-6,1,2,3,-20,-34,-12,-8
1523080541119629,5,4,-23,-54,-107,-6,7,3
1523080541119629,-5,-9,-4,32,127,7,-11,-6
1523080541132555,-2,-1,18,3,30,4,14,2
1523080541132555,0,5,-4,-24,-88,4,7,1
1523080541138548,-6,-8,29,1,-15,-12,-14,-8
1523080541138548,-1,-3,8,-20,-61,-25,-2,-1
1523080541154560,1,-3,1,42,28,-2,-4,2
1523080541154560,-2,0,-18,-8,-12,6,-2,-2
1523080541155561,-4,0,-10,4,-14,10,-5,-4
1523080541155561,4,-4,5,9,-17,21,9,5
1523080541170572,-3,-9,-21,-80,-25,-27,-8,-6
1523080541170572,1,4,12,33,54,23,2,0
1523080541176577,2,1,15,11,24,-11,-2,1
1523080541176577,1,5,-29,2,0,-3,0,-1
1523080541191600,0,-5,-2,-1,-32,-6,-4,-2
1523080541191600,1,12,21,-4,36,-4,-6,-4
1523080541198605,16,-3,-83,-40,-2,25,22,18
1523080541198605,-1,10,10,50,104,21,7,-2
1523080541214613,-7,4,8,19,-81,18,3,1
1523080541214613,-1,0,-24,3,94,-16,-3,-1
1523080541215614,-4,-2,18,7,-36,-20,-10,-4
1523080541215614,0,-6,5,-22,-7,14,1,0
1523080541230623,4,-3,-7,9,36,-3,-2,-1
1523080541230623,-1,0,8,1,-11,3,1,0
1523080541236629,-2,0,9,38,36,15,4,0
1523080541236629,0,-5,-14,-52,-100,-27,-6,-2
1523080541253632,-4,-4,7,20,41,20,-2,-4
1523080541253632,2,-2,-11,-30,-26,-21,-1,3
1523080541275649,-4,-5,2,9,-2,-7,-8,-4
1523080541275649,-2,-6,12,2,-27,-6,-2,-3
1523080541277648,3,3,-17,-12,-7,6,2,2
1523080541277648,1,5,2,15,54,17,8,3
1523080541278664,-3,-2,-4,-24,-22,-13,-7,-5
1523080541278664,-3,-9,2,-1,-11,-4,-4,-3
1523080541290657,-4,-9,19,35,27,-8,-3,-1
1523080541290657,8,18,-29,-21,4,21,6,4
1523080541296675,-8,-6,-10,-3,13,-8,-6,-6
1523080541296675,2,3,-1,-2,-15,2,6,3
1523080541320692,0,-2,5,8,107,-22,-3,-1
1523080541320692,-3,-8,7,16,-39,10,-4,-6
1523080541321681,1,-1,-8,-52,-63,-8,-3,1
1523080541321681,-1,-2,-5,-14,-32,-16,-2,1
1523080541341708,-1,4,-1,15,-14,14,5,1
1523080541341708,4,-2,-9,-13,27,-1,5,4
1523080541342694,1,4,14,-6,9,-16,-3,-1
1523080541342694,-5,-2,26,64,84,22,-5,-5
1523080541358707,8,2,-71,-91,-128,-12,8,7
1523080541358707,-2,-3,12,38,124,14,3,-2
1523080541359720,-3,-5,-3,2,-3,8,4,0
1523080541359720,1,3,4,-39,7,9,1,1
1523080541387726,-3,2,27,54,25,-44,-12,-7
1523080541387726,-2,-7,-17,-1,-26,2,-3,-2
1523080541388727,10,2,-15,-16,20,6,6,12
1523080541388727,-15,-5,-10,23,3,7,2,-17
1523080541395732,1,1,10,-18,-1,-4,-1,1
1523080541395732,-2,-4,10,2,-39,-8,-6,-2
1523080541396734,-3,-2,9,24,45,-4,-6,0
1523080541396734,-7,-4,-11,-26,-40,-6,1,-10
1523080541410756,3,1,1,13,-38,-2,2,2
1523080541410756,-4,-5,-11,-21,-17,0,-5,-5
1523080541424766,1,3,2,7,-8,3,2,1
1523080541424766,7,2,7,-13,-83,-3,0,7
1523080541432758,-3,-3,-1,-1,-22,-18,-4,-4
1523080541432758,-7,-7,3,24,74,15,-6,-6
1523080541438762,-1,1,28,-3,22,1,-2,-6
1523080541438762,6,-1,-32,-10,-13,-8,2,8
1523080541461788,-4,2,26,-7,-11,1,-4,-5
1523080541461788,5,1,-9,12,-100,12,11,8
1523080541462780,-7,-2,2,31,91,2,-2,-7
1523080541462780,-1,-5,-6,-43,-31,-17,-9,-1
1523080541470785,-1,2,5,13,9,13,-2,-2
1523080541470785,-1,0,4,-19,-33,-5,0,-1
1523080541476970,14,-3,-19,-5,-26,6,5,14
1523080541476970,-17,7,2,20,47,-1,0,-8
1523080541499815,0,-6,-12,-18,-14,5,0,2
1523080541499815,-2,-1,20,3,7,-6,-6,-3
1523080541500817,12,8,-49,11,61,-3,4,5
1523080541500817,-2,-6,16,0,-23,-2,-4,0
1523080541513826,0,-5,-2,-5,-25,9,7,4
1523080541513826,-2,-2,-5,-11,24,0,-3,-3
1523080541521822,-8,-5,14,-7,-36,-4,-5,-9
1523080541521822,3,2,23,47,7,-13,-8,-2
1523080541528836,-2,2,10,-31,-29,2,-1,-1
1523080541528836,-2,41,7,-19,67,-1,4,0
1523080541536842,-2,-47,-4,7,1,7,2,-2
1523080541536842,0,-10,-14,-14,-22,-3,-4,-1
1523080541552844,-2,-10,18,27,14,-9,-6,-2
1523080541552844,15,28,-51,6,0,13,8,9
1523080541558847,-5,-10,-23,-9,-34,4,4,-1
1523080541558847,-2,-5,27,10,103,12,11,5
1523080541574859,-4,36,-35,-33,-53,-16,-8,-5
1523080541574859,-3,-20,6,7,5,-9,-9,-5
1523080541575859,-2,13,11,-4,-24,-6,-4,-6
1523080541575859,14,46,-40,14,29,11,14,13
1523080541588868,4,-43,11,45,127,66,16,4
1523080541588868,-12,-7,-7,-44,-14,-52,-17,-7
1523080541596899,-11,-6,8,-54,-120,-25,-15,-10
1523080541596899,-1,-6,3,-43,-5,-6,-4,1
1523080541611906,1,12,10,14,5,2,-2,-1
1523080541611906,1,-10,-7,-9,-24,2,4,1
1523080541618904,-4,-5,-1,49,127,30,3,-1
1523080541618904,-3,-4,-18,-34,-110,-29,-13,-6
1523080541634915,0,8,-11,1,-11,-13,-3,0
1523080541634915,1,-20,16,13,-3,8,3,1
1523080541635902,-2,18,9,-22,-48,-9,-4,-3
1523080541635902,7,5,4,33,27,21,6,3
1523080541648925,-10,-32,-18,-3,102,-7,2,-1
1523080541648925,-6,-7,-1,-35,-88,-16,-9,-6
1523080541656917,2,9,19,6,-40,18,3,0
1523080541656917,-3,-1,30,-18,13,-13,-13,-7
1523080541672928,2,-5,-13,79,16,-2,-2,-1
1523080541672928,1,-4,8,-20,-27,17,10,6
1523080541678932,-1,8,13,10,-4,-2,3,1
1523080541678932,-2,-13,-14,-13,-52,-16,-7,-2
1523080541694958,1,14,16,-22,36,-2,0,0
1523080541694958,-1,-4,7,0,-62,11,-1,-3
1523080541694958,6,-1,-33,30,87,2,3,4
1523080541694958,0,0,11,-11,-61,5,1,2
1523080541708964,2,0,9,-24,-35,2,1,1
1523080541708964,-6,34,9,50,20,-5,2,1
1523080541715969,-1,-31,-3,-14,-4,5,-1,-2
1523080541715969,2,-1,-5,2,-19,-2,-1,-1
1523080541730980,-2,-16,-44,-16,9,-4,-4,-4
1523080541730980,4,6,2,31,77,6,3,2
1523080541738975,-2,10,7,1,6,-10,1,1
1523080541738975,0,5,74,-45,-20,-19,-10,-7
1523080541753986,-8,-22,9,-2,-125,5,4,-1
1523080541753986,-7,-22,12,10,15,-12,-10,-10
1523080541761993,-6,16,-11,-13,10,-11,-8,-6
1523080541761993,3,-2,-12,3,38,2,4,7
1523080541768998,6,15,10,-20,-10,0,-3,2
1523080541768998,-3,-12,-12,2,-6,0,1,2
1523080541776003,-5,-14,13,-11,-47,-2,-2,36
1523080541776003,1,11,8,63,43,6,2,15
1523080541793013,-3,11,6,-43,-81,-27,-11,59
1523080541793013,12,49,-13,7,-22,3,5,-51
1523080541799031,2,-35,23,9,14,-4,3,-107
1523080541799031,-8,35,-1,10,62,7,1,-34
1523080541823035,-8,-7,1,-8,34,3,-3,-3
1523080541823035,-5,-5,2,-22,8,-19,-6,49
1523080541824073,2,10,-10,9,26,1,-3,27
1523080541824073,-1,-20,-48,39,6,12,4,-11
1523080541845155,-9,-4,11,3,-28,-5,0,50
1523080541845155,18,-12,-20,-27,50,9,4,57
1523080541846052,6,8,-2,-19,-33,-9,-1,-96
1523080541846052,-2,-28,-36,-23,-11,7,3,-13
1523080541860078,-6,17,30,-18,-6,-14,-10,-38
1523080541860078,-10,-31,18,11,-13,8,4,39
1523080541860078,-5,19,6,-11,-22,-1,1,127
1523080541860078,0,-3,9,34,-2,-2,4,-54
1523080541874081,1,3,-16,70,42,3,-7,-107
1523080541874081,-4,-14,-15,-49,-65,-3,-2,-27
1523080541882087,0,-2,35,-28,-1,-5,-2,-1
1523080541882087,1,-3,-2,-49,-18,8,3,52
1523080541897128,5,-1,-19,29,87,6,7,120
1523080541897128,1,-11,-21,8,115,-4,1,-128
1523080541898090,1,12,-36,30,57,10,4,-71
1523080541898090,-4,-2,-30,-10,127,-8,-3,-4
1523080541911111,8,6,-12,-2,-10,-6,2,-9
1523080541911111,-5,3,12,-3,-39,4,-2,126
1523080541919107,-1,7,6,30,-86,13,5,-75
1523080541919107,-2,-16,-6,16,-114,-17,-6,-4
1523080541934115,1,-3,13,13,-56,9,6,10
1523080541934115,5,2,-74,43,-75,18,6,52
1523080541950135,-2,1,13,-16,-43,-2,0,38
1523080541950135,2,-7,-4,11,62,6,0,8
1523080541965150,1,7,11,-90,-49,-7,-4,-14
1523080541965150,-2,2,59,66,66,4,3,-26
1523080541966139,-6,-7,-15,-64,-54,-24,-11,8
1523080541966139,-1,-3,4,-4,-11,-1,-1,-7
1523080541971140,1,3,-2,-64,-18,-3,2,-12
1523080541971140,-2,-1,14,17,63,19,3,-40
1523080541979156,0,-2,-7,6,-4,-5,-3,0
1523080541979156,-1,2,17,20,-30,-4,-3,20
1523080541994166,0,-3,-9,-3,-5,3,0,-24
1523080541994166,-1,0,19,-28,-48,-12,-4,-21
1523080542002172,2,-3,-3,15,32,2,4,25
1523080542002172,21,15,-53,25,-53,11,9,17
1523080542017183,-23,-20,-8,18,127,4,-4,-20
1523080542017183,-4,-2,-1,-26,-93,-19,-10,-16
1523080542018184,-4,-5,-3,-30,36,-5,-8,15
1523080542018184,-1,-4,16,-23,20,11,3,-6
1523080542031193,9,4,1,50,-3,-5,1,-11
1523080542031193,-1,-5,-1,13,44,0,0,1
1523080542039198,-5,-3,-3,-17,-63,-9,-1,4
1523080542039198,1,-3,11,-11,-22,0,0,1
1523080542054215,2,3,-18,15,20,4,2,-3
1523080542054215,-5,-4,6,-28,-2,-4,-7,-3
1523080542062219,5,9,10,10,-53,17,3,3
1523080542062219,-7,-6,0,39,-66,-24,-8,2
1523080542077235,2,-2,4,-23,-87,-1,0,2
1523080542077235,-1,0,-10,-29,0,-11,0,-7
1523080542078236,0,1,-1,28,56,-1,-4,0
1523080542078236,-5,-2,6,-19,-6,11,1,4
1523080542099245,3,1,6,27,48,-7,0,-2
1523080542099245,0,-1,-12,-60,-56,-1,-3,-6
1523080542100235,-4,-2,6,6,43,-2,-1,5
1523080542100235,-3,-3,4,19,13,3,-1,4
1523080542123265,2,7,9,19,27,-5,-1,-5
1523080542123265,0,-3,0,9,33,9,0,-3
1523080542123265,-2,-2,11,-1,39,-2,0,5
1523080542123265,-1,-1,2,-32,-12,1,-2,-3
1523080542137278,-2,-4,1,-16,-7,-5,-3,-5
1523080542137278,-1,-1,-4,8,-29,-13,-2,-1
1523080542138259,-2,2,0,-16,47,10,3,2
1523080542138259,-3,-7,-6,-4,-23,-8,-3,-3
1523080542151288,2,6,3,-23,2,3,0,-3
1523080542151288,0,3,12,41,56,5,3,-1
1523080542159294,-4,-11,-20,-16,-70,-6,-5,4
1523080542159294,-1,-1,11,3,77,3,3,0
1523080542174285,0,-1,8,8,49,9,0,-2
1523080542174285,-1,-1,-12,-39,-82,-17,-5,-2
1523080542182291,-2,-2,-9,55,6,-1,-2,-2
1523080542182291,-2,-2,-1,-4,-2,-1,1,2
1523080542197321,2,-3,-3,-12,-33,-6,1,2
1523080542197321,2,2,7,29,27,6,6,0
1523080542198303,0,3,24,-4,-9,-1,-2,-1
1523080542198303,-4,-7,-14,-34,-35,-6,-6,-2
1523080542211321,-2,2,4,20,-21,4,-2,0
1523080542211321,-1,1,-1,3,54,2,2,0
1523080542219326,4,5,7,8,-4,-7,0,4
1523080542219326,-2,-3,-14,-18,41,2,-5,-2
1523080542242343,-4,-6,21,52,50,1,-3,-5
1523080542242343,3,-1,-7,-18,-102,-4,1,2
1523080542243334,-4,5,1,-28,77,-1,0,-1
1523080542243334,0,7,4,54,35,2,-2,-1
1523080542257353,-2,-8,-6,-24,6,-1,0,0
1523080542257353,2,-1,6,11,-12,3,1,2
1523080542258354,2,-3,4,-1,34,8,4,1
1523080542258354,-2,-4,-15,-21,-17,-11,-5,-1
1523080542271354,-1,3,-9,1,-31,4,-2,2
1523080542271354,-1,-1,5,18,16,2,2,0
1523080542279362,3,3,-8,9,23,-3,3,-1
1523080542279362,-4,-4,1,51,37,0,-5,-2
1523080542294383,0,-2,-20,5,7,3,1,0
1523080542294383,-4,-3,-4,-4,-54,-5,-8,-2
1523080542302389,-1,-2,2,-3,-40,-2,-1,-2
1523080542302389,-2,1,-3,-15,66,0,0,1
1523080542317400,1,3,-1,-29,-67,-9,0,0
1523080542317400,-3,-5,-3,-34,11,-11,-4,-4
1523080542318400,1,0,-10,-17,-27,0,1,0
1523080542318400,-1,-4,8,23,-4,9,2,-2
1523080542331406,0,-8,0,-43,-25,1,-2,-2
1523080542331406,-2,19,15,-3,14,2,-2,1
1523080542339427,-2,-8,-14,9,31,-1,-2,0
1523080542339427,2,3,1,-54,-40,-14,-1,-2
1523080542354412,2,5,-10,29,68,4,2,1
1523080542354412,0,-12,-19,-14,-26,9,0,-2
1523080542362421,2,-1,-3,-17,17,-3,-1,1
1523080542362421,-3,9,28,58,55,7,1,-3
1523080542385454,4,-1,-24,-53,-92,-15,-4,1
1523080542385454,-4,-2,2,-38,35,3,-2,-1
1523080542386449,-3,-3,-7,39,-10,-7,-3,-1
1523080542386449,3,-1,-2,-36,-36,1,0,-1
1523080542399512,-2,6,5,37,47,5,1,-3
1523080542399512,5,5,2,10,40,1,0,0
1523080542400446,-3,1,-2,69,-54,-4,-5,-2
1523080542400446,0,-8,-10,-4,46,6,2,2
1523080542413464,3,6,9,-6,-76,6,5,3
1523080542413464,-5,-10,-29,10,52,-6,-6,-6
1523080542422472,1,-1,13,35,27,10,3,0
1523080542422472,-4,-3,-7,-35,1,-14,-2,2
1523080542437476,-2,2,10,60,78,5,-1,-2
1523080542437476,-1,-4,3,-10,-23,0,1,-1
1523080542437476,3,4,1,19,61,16,6,0
1523080542437476,-4,-7,-33,-69,-93,-42,-16,-7
1523080542451495,-7,-10,10,-10,54,-3,-5,-3
1523080542451495,-2,-3,-4,-3,-6,-4,-4,2
1523080542458535,-1,-1,-5,-49,9,-13,-6,-1
1523080542458535,1,3,20,2,-17,26,6,1
1523080542473546,1,0,5,43,38,0,5,3
1523080542473546,-1,-6,24,-20,10,-15,-8,-2
1523080542490554,-3,3,-23,11,-128,-7,-3,1
1523080542490554,6,10,19,-69,97,39,11,1
1523080542505594,-8,-10,-16,36,-54,-56,-22,-6
1523080542505594,0,1,13,-19,10,-8,7,3
1523080542506588,2,4,17,23,25,3,1,-1
1523080542506588,-4,-9,-20,-4,-76,2,-1,0
1523080542519603,3,-2,6,-28,-65,2,3,-3
1523080542519603,7,32,5,39,42,17,4,-1
1523080542520610,-13,-16,5,-25,-24,-13,-7,-7
1523080542520610,2,9,14,26,37,9,8,1
1523080542543611,2,-14,-35,-35,-17,-16,0,3
1523080542543611,2,12,7,39,-15,-2,-5,-2
1523080542544622,7,11,3,9,81,37,13,1
1523080542544622,-8,-14,21,1,26,-18,-13,-5
1523080542557620,1,17,-3,-11,5,19,5,-4
1523080542557620,-2,-10,-20,0,79,9,5,2
1523080542557620,4,3,2,-24,36,4,4,0
1523080542557620,2,2,13,54,60,-1,3,1
1523080542571630,2,2,6,74,25,43,4,0
1523080542571630,-6,-15,-18,-18,-75,-59,-14,-2
1523080542578677,-8,-12,19,-99,-119,-22,-17,-7
1523080542578677,8,10,-51,52,-10,10,12,5
1523080542593687,-2,-1,8,44,60,28,10,4
1523080542593687,0,-4,10,33,-47,5,2,-2
1523080542601693,-1,7,6,-26,-31,-19,-4,-3
1523080542601693,-3,-5,-6,-37,-118,-8,-9,-1
1523080542625727,2,0,16,4,76,7,0,-1
1523080542625727,-5,-12,-9,-24,-40,-3,-1,-4
1523080542625727,-2,-3,-8,46,40,9,3,2
1523080542625727,4,15,-13,-62,-91,-34,-7,1
1523080542631714,2,-2,24,43,76,17,5,-2
1523080542631714,-5,-16,-20,-82,-89,-19,-10,-3
1523080542638709,1,-1,7,96,53,50,9,4
1523080542638709,-2,-3,6,-15,8,-7,-3,-3
1523080542653735,-8,2,51,-43,-1,-36,-17,-8
1523080542653735,2,5,-8,-9,9,10,6,2
1523080542661736,-2,-2,-3,-5,73,10,3,-2
1523080542661736,-2,-3,15,50,-81,-8,-3,0
1523080542676750,-8,-2,2,-88,-13,-20,-13,-7
1523080542676750,8,3,-17,127,127,42,15,3
1523080542700768,9,-15,-25,-44,-128,-47,-8,8
1523080542700768,-14,51,1,-13,54,10,12,-6
1523080542702768,-2,-26,-42,-37,-54,-9,-9,-2
1523080542702768,-2,14,15,38,93,6,-2,-3
1523080542706768,8,-5,19,67,-13,10,2,4
1523080542706768,-1,-16,-70,-99,-7,-16,-8,-1
1523080542713773,-3,0,-8,67,-69,0,4,3
1523080542713773,5,-12,6,12,70,18,6,0
1523080542729774,-1,70,-3,-128,-96,-6,-4,1
1523080542729774,-9,-72,48,-10,60,-21,-14,-6
1523080542736782,10,25,-38,16,-68,-3,2,4
1523080542736782,-14,-32,-16,-51,-107,0,0,3
1523080542744799,-4,1,-9,13,80,-2,0,-5
1523080542744799,3,-9,21,12,-72,0,2,0
1523080542783826,9,10,-15,-26,42,4,4,1
1523080542783826,2,11,21,9,-57,2,-3,2
1523080542784813,-1,-12,-5,-69,26,-10,1,-2
1523080542784813,12,8,-69,-33,-49,-1,1,13
1523080542786815,-16,2,-7,-46,52,-8,6,-12
1523080542786815,-7,-56,24,55,-111,-11,-13,-3
1523080542797833,17,50,-48,-75,68,-9,2,-35
1523080542797833,-31,-85,19,91,-13,7,-5,-6
1523080542799834,-2,-20,28,-4,28,14,6,61
1523080542799834,1,40,7,5,71,27,8,-19
1523080542804829,-2,-100,20,71,1,-5,-9,5
1523080542804829,29,116,82,-51,-71,-45,-20,-4
1523080542819848,36,115,-14,77,-69,29,20,-30
1523080542819848,-74,-24,11,-30,40,4,-4,-83
1523080542820840,-83,-89,-9,127,-39,-12,-12,-97
1523080542820840,-22,45,-16,47,82,25,14,69
1523080542833858,59,-117,114,-128,23,-41,-11,93
1523080542833858,71,115,13,-85,52,25,19,-33
1523080542841864,47,5,-25,-80,50,14,12,-86
1523080542841864,-49,61,-5,117,-3,12,0,-128
1523080542856875,2,-38,-18,6,-10,-17,-25,66
1523080542856875,-84,-16,-51,52,-36,-8,7,24
1523080542864870,-55,-30,1,4,-32,-13,-17,-70
1523080542864870,-62,20,35,94,66,8,-1,100
1523080542879881,79,23,-19,-71,44,25,33,-21
1523080542879881,9,-33,39,-12,-79,-39,-23,-92
1523080542880882,6,55,-5,-98,1,-8,5,36
1523080542880882,19,-42,32,-112,127,-37,-19,-125
1523080542893904,-34,127,93,45,-115,65,-26,57
1523080542893904,42,-80,-125,-128,-30,-107,17,127
1523080542901910,-20,127,63,-56,88,103,13,-45
1523080542901910,126,59,19,90,56,40,30,127
1523080542925917,-120,-41,-96,-128,35,-73,-18,23
1523080542925917,-65,112,127,-5,-102,-11,-3,-104
1523080542925917,-53,80,77,127,-128,-95,-13,1
1523080542925917,-29,118,4,-94,-119,127,22,8
1523080542939933,-5,-20,-98,-64,-53,-52,-5,53
1523080542939933,28,107,-128,-110,82,49,-10,127
1523080542939933,25,-128,-128,-121,-54,-76,14,127
1523080542939933,19,-58,69,-70,-55,-85,-26,60
1523080542955945,-4,75,81,91,22,-106,-22,4
1523080542955945,1,92,-82,5,121,85,-55,33
1523080542969968,36,127,-80,-89,-69,-67,-8,47
1523080542969968,-3,77,-128,-70,55,57,-53,-66
1523080542976949,10,54,-127,31,-24,14,20,-83
1523080542976949,118,48,-15,60,110,26,98,44
1523080542984969,-66,5,-69,-42,13,21,-36,-53
1523080542984969,-15,-63,-77,-8,-62,-47,-11,-50
1523080542999979,11,-30,-48,-16,11,6,-91,-78
1523080542999979,-15,-8,14,37,-1,5,73,-93
1523080542999979,127,-50,29,60,26,64,-63,109
1523080542999979,22,-52,9,-52,18,-29,21,3
1523080543013990,-57,-31,-32,-103,-70,-19,-117,-87
1523080543013990,-6,-73,21,67,-91,-19,-38,-36
1523080543021997,-41,-52,13,-15,48,28,-4,-63
1523080543021997,-23,-27,9,29,7,-32,2,-10
1523080543036006,13,6,3,52,3,27,57,20
1523080543036006,-10,-44,-2,-20,-46,-9,-3,4
1523080543045012,-6,-5,24,35,21,21,44,12
1523080543045012,3,8,-16,1,18,5,-11,14
1523080543060022,13,-13,-1,20,-4,31,61,-21
1523080543060022,-23,-15,17,-13,-9,-4,-20,-4
1523080543060022,7,12,15,22,29,-10,-12,-2
1523080543060022,12,-7,-3,33,14,10,21,8
1523080543076023,-17,-7,7,-15,1,-5,8,-29
1523080543076023,-7,-2,14,-13,9,-13,-32,9
1523080543082034,18,7,2,15,-36,20,11,21
1523080543082034,4,-12,-9,6,34,-5,13,3
1523080543096035,-10,0,11,-6,-20,13,25,-4
1523080543096035,21,-2,-20,-15,-5,7,-19,23
1523080543105052,-11,-6,-2,-1,-10,5,-6,-3
1523080543105052,-5,-2,-5,-16,-57,-52,29,0
1523080543120053,-5,2,4,33,104,123,-26,-19
1523080543120053,9,-6,6,22,-8,44,51,30
1523080543120053,5,-3,-3,-20,6,-21,46,6
1523080543120053,-1,-2,3,-14,57,-9,-26,-10
1523080543134071,10,3,-12,34,-25,-48,5,4
1523080543134071,-9,-2,12,2,67,-38,-45,-16
1523080543142077,-4,-6,-11,-3,36,-33,-27,-11
1523080543142077,-4,-3,3,-5,-22,32,8,3
1523080543156087,15,0,-1,-21,0,8,44,7
1523080543156087,-12,-6,28,-2,-10,16,-28,-6
1523080543165119,-15,0,-42,27,36,3,12,-23
1523080543165119,46,-5,-15,6,-12,2,-18,36
1523080543180095,-32,14,31,0,5,-23,-8,-31
1523080543180095,13,3,16,-22,-42,-18,-29,5
1523080543180095,-21,7,25,11,4,-1,23,0
1523080543180095,8,-15,-31,-9,-8,16,3,-8
1523080543194114,-3,-20,5,19,5,10,10,-13
1523080543194114,4,-2,-72,-38,24,-27,-13,-11
1523080543202120,48,14,19,3,-43,6,-89,-8
1523080543202120,-69,-10,48,11,-23,12,32,29
1523080543216129,38,23,40,-9,-8,-10,105,71
1523080543216129,0,-10,-12,-52,21,27,-6,-16
1523080543232141,0,-19,-18,-42,29,-12,-24,-1
1523080543232141,13,6,-35,23,-32,3,-58,-37
1523080543239146,-1,-3,-16,98,-38,7,-88,-25
1523080543239146,-20,-6,25,19,74,-34,47,14
1523080543240143,18,13,4,-1,-41,22,40,14
1523080543240143,-4,-7,16,1,12,-19,-3,-2
1523080543254147,-8,-12,-25,-39,19,3,6,-9
1523080543254147,-1,-5,3,20,-49,17,-10,-4
1523080543262162,-6,-7,-62,-17,-91,24,-1,-1
1523080543262162,2,19,90,14,117,-86,-8,-2
1523080543276172,-11,-14,-22,-11,-11,10,0,-2
1523080543276172,2,17,30,48,-32,3,-15,-9
1523080543284178,-5,-10,-39,25,9,10,12,14
1523080543284178,-1,37,3,-37,-48,14,7,-12
1523080543299188,6,-71,-56,-52,17,-3,-10,-7
1523080543299188,-5,21,66,-21,-12,-28,-17,6
1523080543300179,-7,0,7,-39,23,-13,9,0
1523080543300179,7,1,-39,7,-7,39,13,1
1523080543314199,32,7,20,15,24,-39,-21,-2
1523080543314199,-58,-23,-57,32,-26,46,16,0
1523080543322205,27,26,89,17,14,-6,26,6
1523080543322205,-2,-23,-16,124,51,11,-21,-11
1523080543336218,1,17,10,6,-14,-52,-16,-3
1523080543336218,14,-14,-14,-86,-73,-44,-27,-6
1523080543352230,-4,-5,3,-27,50,77,18,12
